Time (s)	WE(1).Potential (V)
1.9607409950496	0.56732177734375
2.96074099252485	0.567626953125
3.96074099000009	0.567626953125
4.96074098747533	0.567626953125
5.96074098495058	0.567626953125
6.96074098242582	0.56793212890625
7.96074097990106	0.56793212890625
8.9607409773763	0.56793212890625
9.96074097485155	0.5682373046875
10.9607409723268	0.5682373046875
11.960740969802	0.5682373046875
12.9607409672773	0.56854248046875
13.9607409647525	0.56854248046875
14.9607409622278	0.56854248046875
15.960740959703	0.56854248046875
16.9607409571782	0.56884765625
17.9607409546535	0.56884765625
18.9607409521287	0.56884765625
19.960740949604	0.56915283203125
20.9607409470792	0.56915283203125
21.9607409445545	0.56915283203125
22.9607409420297	0.5694580078125
23.9607409395049	0.5694580078125
24.9607409369802	0.5694580078125
25.9607409344554	0.5694580078125
26.9607409319307	0.56976318359375
27.9607409294059	0.56976318359375
28.9607409268812	0.56976318359375
29.9607409243564	0.570068359375
30.9607409218316	0.570068359375
31.9607409193069	0.570068359375
32.9607409167821	0.570068359375
33.9607409142574	0.57037353515625
34.9607409117326	0.57037353515625
35.9607409092079	0.57037353515625
36.9607409066831	0.5706787109375
37.9607409041583	0.5706787109375
38.9607409016336	0.5706787109375
39.9607408991088	0.5706787109375
40.9607408965841	0.57098388671875
41.9607408940593	0.57098388671875
42.9607408915346	0.57098388671875
43.9607408890098	0.57098388671875
44.960740886485	0.5712890625
45.9607408839603	0.5712890625
46.9607408814355	0.5712890625
47.9607408789108	0.5712890625
48.960740876386	0.57159423828125
49.9607408738613	0.57159423828125
50.9607408713365	0.57159423828125
51.9607408688117	0.5718994140625
52.960740866287	0.5718994140625
53.9607408637622	0.5718994140625
54.9607408612375	0.5718994140625
55.9607408587127	0.57220458984375
56.960740856188	0.57220458984375
57.9607408536632	0.57220458984375
58.9607408511384	0.572509765625
59.9607408486137	0.572509765625
60.9607408460889	0.572509765625
61.9607408435642	0.572509765625
62.9607408410394	0.57281494140625
63.9607408385147	0.57281494140625
64.9607408359899	0.57281494140625
65.9607408334651	0.57281494140625
66.9607408309404	0.5731201171875
67.9607408284156	0.5731201171875
68.9607408258909	0.5731201171875
69.9607408233661	0.5731201171875
70.9607408208414	0.57342529296875
71.9607408183166	0.57342529296875
72.9607408157918	0.57342529296875
73.9607408132671	0.57373046875
74.9607408107423	0.57373046875
75.9607408082176	0.57373046875
76.9607408056928	0.57373046875
77.9607408031681	0.57403564453125
78.9607408006433	0.57403564453125
79.9607407981185	0.57403564453125
80.9607407955938	0.57403564453125
81.960740793069	0.5743408203125
82.9607407905443	0.5743408203125
83.9607407880195	0.5743408203125
84.9607407854947	0.5743408203125
85.96074078297	0.57464599609375
86.9607407804452	0.57464599609375
87.9607407779205	0.57464599609375
88.9607407753957	0.57464599609375
89.960740772871	0.574951171875
90.9607407703462	0.574951171875
91.9607407678214	0.574951171875
92.9607407652967	0.57525634765625
93.9607407627719	0.57525634765625
94.9607407602472	0.57525634765625
95.9607407577224	0.57525634765625
96.9607407551977	0.5755615234375
97.9607407526729	0.5755615234375
98.9607407501481	0.5755615234375
99.9607407476234	0.5755615234375
100.960740745099	0.57586669921875
101.960740742574	0.57586669921875
102.960740740049	0.57586669921875
103.960740737524	0.57586669921875
104.960740735	0.576171875
105.960740732475	0.576171875
106.96074072995	0.576171875
107.960740727425	0.57647705078125
108.960740724901	0.57647705078125
109.960740722376	0.57647705078125
110.960740719851	0.57647705078125
111.960740717326	0.5767822265625
112.960740714802	0.5767822265625
113.960740712277	0.5767822265625
114.960740709752	0.5767822265625
115.960740707227	0.57708740234375
116.960740704703	0.57708740234375
117.960740702178	0.57708740234375
118.960740699653	0.57708740234375
119.960740697128	0.577392578125
120.960740694603	0.577392578125
121.960740692079	0.577392578125
122.960740689554	0.577392578125
123.960740687029	0.57769775390625
124.960740684504	0.57769775390625
125.96074068198	0.57769775390625
126.960740679455	0.57769775390625
127.96074067693	0.5780029296875
128.960740674405	0.5780029296875
129.960740671881	0.5780029296875
130.960740669356	0.5780029296875
131.960740666831	0.57830810546875
132.960740664306	0.57830810546875
133.960740661782	0.57830810546875
134.960740659257	0.57830810546875
135.960740656732	0.57861328125
136.960740654207	0.57861328125
137.960740651683	0.57861328125
138.960740649158	0.57861328125
139.960740646633	0.57891845703125
140.960740644108	0.57891845703125
141.960740641584	0.57891845703125
142.960740639059	0.57891845703125
143.960740636534	0.5792236328125
144.960740634009	0.5792236328125
145.960740631485	0.5792236328125
146.96074062896	0.5792236328125
147.960740626435	0.5792236328125
148.96074062391	0.57952880859375
149.960740621386	0.57952880859375
150.960740618861	0.57952880859375
151.960740616336	0.57952880859375
152.960740613811	0.579833984375
153.960740611286	0.579833984375
154.960740608762	0.579833984375
155.960740606237	0.579833984375
156.960740603712	0.58013916015625
157.960740601187	0.58013916015625
158.960740598663	0.58013916015625
159.960740596138	0.58013916015625
160.960740593613	0.5804443359375
161.960740591088	0.5804443359375
162.960740588564	0.5804443359375
163.960740586039	0.5804443359375
164.960740583514	0.5804443359375
165.960740580989	0.58074951171875
166.960740578465	0.58074951171875
167.96074057594	0.58074951171875
168.960740573415	0.58074951171875
169.96074057089	0.5810546875
170.960740568366	0.5810546875
171.960740565841	0.5810546875
172.960740563316	0.5810546875
173.960740560791	0.58135986328125
174.960740558267	0.58135986328125
175.960740555742	0.58135986328125
176.960740553217	0.58135986328125
177.960740550692	0.5816650390625
178.960740548168	0.5816650390625
179.960740545643	0.5816650390625
180.960740543118	0.5816650390625
