Time (s)	WE(1).Potential (V)
5480.14955916395	0.57464599609375
5481.14955916143	0.567626953125
5482.1495591589	0.56121826171875
5483.14955915638	0.55511474609375
5484.14955915385	0.54962158203125
5485.14955915133	0.54443359375
5486.1495591488	0.53955078125
5487.14955914628	0.53497314453125
5488.14955914375	0.531005859375
5489.14955914123	0.52703857421875
5490.1495591387	0.52337646484375
5491.14955913618	0.52001953125
5492.14955913366	0.5169677734375
5493.14955913113	0.513916015625
5494.14955912861	0.51116943359375
5495.14955912608	0.50872802734375
5496.14955912356	0.50628662109375
5497.14955912103	0.504150390625
5498.14955911851	0.50201416015625
5499.14955911598	0.50018310546875
5500.14955911346	0.498321533203125
5501.14955911093	0.496734619140625
5502.14955910841	0.4952392578125
5503.14955910588	0.49383544921875
5504.14955910336	0.4925537109375
5505.14955910083	0.491363525390625
5506.14955909831	0.49029541015625
5507.14955909578	0.489288330078125
5508.14955909326	0.488372802734375
5509.14955909073	0.487518310546875
5510.14955908821	0.486724853515625
5511.14955908568	0.4859619140625
5512.14955908316	0.4853515625
5513.14955908064	0.4847412109375
5514.14955907811	0.48419189453125
5515.14955907559	0.483673095703125
5516.14955907306	0.483184814453125
5517.14955907054	0.482757568359375
5518.14955906801	0.48236083984375
5519.14955906549	0.482025146484375
5520.14955906296	0.481719970703125
5521.14955906044	0.481414794921875
5522.14955905791	0.481170654296875
5523.14955905539	0.480926513671875
5524.14955905286	0.480682373046875
5525.14955905034	0.480499267578125
5526.14955904781	0.48028564453125
5527.14955904529	0.4801025390625
5528.14955904276	0.479949951171875
5529.14955904024	0.479827880859375
5530.14955903771	0.479705810546875
5531.14955903519	0.479583740234375
5532.14955903266	0.479461669921875
5533.14955903014	0.4793701171875
5534.14955902762	0.47930908203125
5535.14955902509	0.479248046875
5536.14955902257	0.479156494140625
5537.14955902004	0.4791259765625
5538.14955901752	0.479095458984375
5539.14955901499	0.479034423828125
5540.14955901247	0.47900390625
5541.14955900994	0.478973388671875
5542.14955900742	0.478973388671875
5543.14955900489	0.47894287109375
5544.14955900237	0.478912353515625
5545.14955899984	0.4788818359375
5546.14955899732	0.4788818359375
5547.14955899479	0.478851318359375
5548.14955899227	0.478851318359375
5549.14955898974	0.478851318359375
5550.14955898722	0.478851318359375
5551.14955898469	0.478851318359375
5552.14955898217	0.478851318359375
5553.14955897965	0.4788818359375
5554.14955897712	0.478912353515625
5555.1495589746	0.478912353515625
5556.14955897207	0.478912353515625
5557.14955896955	0.47894287109375
5558.14955896702	0.478973388671875
5559.1495589645	0.47900390625
5560.14955896197	0.47900390625
5561.14955895945	0.47906494140625
5562.14955895692	0.479095458984375
5563.1495589544	0.4791259765625
5564.14955895187	0.479156494140625
5565.14955894935	0.47918701171875
5566.14955894682	0.479217529296875
5567.1495589443	0.479248046875
5568.14955894177	0.479278564453125
5569.14955893925	0.47930908203125
5570.14955893672	0.4793701171875
5571.1495589342	0.47943115234375
5572.14955893167	0.479461669921875
5573.14955892915	0.4794921875
5574.14955892663	0.47955322265625
5575.1495589241	0.4796142578125
5576.14955892158	0.479644775390625
5577.14955891905	0.479705810546875
5578.14955891653	0.479766845703125
5579.149558914	0.47979736328125
5580.14955891148	0.479827880859375
5581.14955890895	0.479888916015625
5582.14955890643	0.47991943359375
5583.1495589039	0.47998046875
5584.14955890138	0.48004150390625
5585.14955889885	0.4801025390625
5586.14955889633	0.480133056640625
5587.1495588938	0.480194091796875
5588.14955889128	0.480194091796875
5589.14955888875	0.480255126953125
5590.14955888623	0.48028564453125
5591.1495588837	0.48028564453125
5592.14955888118	0.480316162109375
5593.14955887865	0.480377197265625
5594.14955887613	0.48040771484375
5595.14955887361	0.480438232421875
5596.14955887108	0.48046875
5597.14955886856	0.48052978515625
5598.14955886603	0.480560302734375
5599.14955886351	0.480560302734375
5600.14955886098	0.480621337890625
5601.14955885846	0.48065185546875
5602.14955885593	0.48065185546875
5603.14955885341	0.480682373046875
5604.14955885088	0.480682373046875
5605.14955884836	0.480712890625
5606.14955884583	0.480682373046875
5607.14955884331	0.480712890625
5608.14955884078	0.480712890625
5609.14955883826	0.480743408203125
5610.14955883573	0.48077392578125
5611.14955883321	0.48077392578125
5612.14955883068	0.480804443359375
5613.14955882816	0.480865478515625
5614.14955882563	0.48089599609375
5615.14955882311	0.48095703125
5616.14955882059	0.480987548828125
5617.14955881806	0.48101806640625
5618.14955881554	0.481048583984375
5619.14955881301	0.4810791015625
5620.14955881049	0.48114013671875
5621.14955880796	0.481170654296875
5622.14955880544	0.481231689453125
5623.14955880291	0.48126220703125
5624.14955880039	0.481292724609375
5625.14955879786	0.4813232421875
5626.14955879534	0.4813232421875
5627.14955879281	0.481353759765625
5628.14955879029	0.481414794921875
5629.14955878776	0.4814453125
5630.14955878524	0.48150634765625
5631.14955878271	0.481536865234375
5632.14955878019	0.4815673828125
5633.14955877766	0.4815673828125
5634.14955877514	0.481597900390625
5635.14955877261	0.48162841796875
5636.14955877009	0.48162841796875
5637.14955876757	0.481597900390625
5638.14955876504	0.48162841796875
5639.14955876252	0.481658935546875
5640.14955875999	0.481658935546875
5641.14955875747	0.481689453125
5642.14955875494	0.481719970703125
5643.14955875242	0.48175048828125
5644.14955874989	0.481781005859375
5645.14955874737	0.481781005859375
5646.14955874484	0.4818115234375
5647.14955874232	0.481842041015625
5648.14955873979	0.4818115234375
5649.14955873727	0.481842041015625
5650.14955873474	0.4818115234375
5651.14955873222	0.4818115234375
5652.14955872969	0.4818115234375
5653.14955872717	0.481842041015625
5654.14955872464	0.481842041015625
5655.14955872212	0.48187255859375
5656.1495587196	0.481903076171875
5657.14955871707	0.481903076171875
5658.14955871455	0.481903076171875
5659.14955871202	0.481903076171875
