Time (s)	WE(1).Potential (V)	OCP value (V)
620.821835432576	-0.5078125	-0.0111412048339844
621.821835430051	-0.444366455078125	
622.821835427526	-0.381103515625	
623.821835425001	-0.33123779296875	
624.821835422477	-0.29388427734375	
625.821835419952	-0.26690673828125	
626.821835417427	-0.24639892578125	
627.821835414902	-0.23052978515625	
628.821835412377	-0.21783447265625	
629.821835409853	-0.20733642578125	
630.821835407328	-0.198486328125	
631.821835404803	-0.190948486328125	
632.821835402278	-0.184478759765625	
633.821835399754	-0.178924560546875	
634.821835397229	-0.1741943359375	
635.821835394704	-0.170166015625	
636.821835392179	-0.1666259765625	
637.821835389655	-0.163665771484375	
638.82183538713	-0.1611328125	
639.821835384605	-0.15887451171875	
640.82183538208	-0.156951904296875	
641.821835379556	-0.155242919921875	
642.821835377031	-0.15374755859375	
643.821835374506	-0.15228271484375	
644.821835371981	-0.151123046875	
645.821835369457	-0.15008544921875	
646.821835366932	-0.149169921875	
647.821835364407	-0.1484375	
648.821835361882	-0.147705078125	
649.821835359358	-0.147064208984375	
650.821835356833	-0.146484375	
651.821835354308	-0.145904541015625	
652.821835351783	-0.14544677734375	
653.821835349259	-0.14508056640625	
654.821835346734	-0.14459228515625	
655.821835344209	-0.14361572265625	
656.821835341684	-0.143310546875	
657.82183533916	-0.142730712890625	
658.821835336635	-0.141998291015625	
659.82183533411	-0.142486572265625	
660.821835331585	-0.142364501953125	
661.82183532906	-0.14202880859375	
662.821835326536	-0.141693115234375	
663.821835324011	-0.141326904296875	
664.821835321486	-0.140869140625	
665.821835318961	-0.14031982421875	
666.821835316437	-0.139801025390625	
667.821835313912	-0.139251708984375	
668.821835311387	-0.1385498046875	
669.821835308862	-0.136993408203125	
670.821835306338	-0.136383056640625	
671.821835303813	-0.135955810546875	
672.821835301288	-0.135284423828125	
673.821835298763	-0.134246826171875	
674.821835296239	-0.132659912109375	
675.821835293714	-0.131927490234375	
676.821835291189	-0.130462646484375	
677.821835288664	-0.12933349609375	
678.82183528614	-0.127960205078125	
679.821835283615	-0.126495361328125	
680.82183528109	-0.1248779296875	
681.821835278565	-0.12347412109375	
682.821835276041	-0.122039794921875	
683.821835273516	-0.120697021484375	
684.821835270991	-0.11932373046875	
685.821835268466	-0.11798095703125	
686.821835265942	-0.116607666015625	
687.821835263417	-0.11517333984375	
688.821835260892	-0.11376953125	
689.821835258367	-0.112335205078125	
690.821835255843	-0.1109619140625	
691.821835253318	-0.10968017578125	
692.821835250793	-0.1083984375	
693.821835248268	-0.10711669921875	
694.821835245744	-0.10589599609375	
695.821835243219	-0.104583740234375	
696.821835240694	-0.103302001953125	
697.821835238169	-0.102081298828125	
698.821835235644	-0.100830078125	
699.82183523312	-0.099609375	
700.821835230595	-0.098419189453125	
701.82183522807	-0.09716796875	
702.821835225545	-0.09600830078125	
703.821835223021	-0.0948486328125	
704.821835220496	-0.093841552734375	
705.821835217971	-0.092559814453125	
706.821835215446	-0.09136962890625	
707.821835212922	-0.090179443359375	
708.821835210397	-0.089019775390625	
709.821835207872	-0.087890625	
710.821835205347	-0.08673095703125	
711.821835202823	-0.085601806640625	
712.821835200298	-0.08453369140625	
713.821835197773	-0.083465576171875	
714.821835195248	-0.08233642578125	
715.821835192724	-0.08123779296875	
716.821835190199	-0.08013916015625	
717.821835187674	-0.0791015625	
718.821835185149	-0.078033447265625	
719.821835182625	-0.07696533203125	
720.8218351801	-0.07586669921875	
721.821835177575	-0.07476806640625	
722.82183517505	-0.07373046875	
723.821835172526	-0.072662353515625	
724.821835170001	-0.071685791015625	
725.821835167476	-0.070526123046875	
726.821835164951	-0.0694580078125	
727.821835162427	-0.068328857421875	
728.821835159902	-0.0672607421875	
729.821835157377	-0.066162109375	
730.821835154852	-0.065185546875	
731.821835152327	-0.06414794921875	
732.821835149803	-0.06304931640625	
733.821835147278	-0.061981201171875	
734.821835144753	-0.06097412109375	
735.821835142228	-0.05987548828125	
736.821835139704	-0.058837890625	
737.821835137179	-0.05780029296875	
738.821835134654	-0.05670166015625	
739.821835132129	-0.055633544921875	
740.821835129605	-0.054534912109375	
741.82183512708	-0.053436279296875	
742.821835124555	-0.052337646484375	
743.82183512203	-0.051300048828125	
744.821835119506	-0.05023193359375	
745.821835116981	-0.0491363525390625	
746.821835114456	-0.0480377197265625	
747.821835111931	-0.046942138671875	
748.821835109407	-0.0458221435546875	
749.821835106882	-0.0447509765625	
750.821835104357	-0.043701171875	
751.821835101832	-0.042608642578125	
752.821835099308	-0.041583251953125	
753.821835096783	-0.0404449462890625	
754.821835094258	-0.039361572265625	
755.821835091733	-0.038226318359375	
756.821835089209	-0.0370941162109375	
757.821835086684	-0.0360565185546875	
758.821835084159	-0.0348724365234375	
759.821835081634	-0.03377685546875	
760.82183507911	-0.0327178955078125	
761.821835076585	-0.0316436767578125	
762.82183507406	-0.030548095703125	
763.821835071535	-0.0294097900390625	
764.82183506901	-0.02833251953125	
765.821835066486	-0.0272186279296875	
766.821835063961	-0.026141357421875	
767.821835061436	-0.0250579833984375	
768.821835058911	-0.023992919921875	
769.821835056387	-0.0229400634765625	
770.821835053862	-0.021826171875	
771.821835051337	-0.02071533203125	
772.821835048812	-0.01964111328125	
773.821835046288	-0.01876220703125	
774.821835043763	-0.0175750732421875	
775.821835041238	-0.0164337158203125	
776.821835038713	-0.0152587890625	
777.821835036189	-0.0141998291015625	
778.821835033664	-0.013134765625	
779.821835031139	-0.0121002197265625	
780.821835028614	-0.0111083984375	
781.82183502609	-0.010247802734375	
