Time (s)	WE(1).Potential (V)
2.01472299491331	0.59600830078125
3.01472299238856	0.59600830078125
4.0147229898638	0.59600830078125
5.01472298733904	0.5963134765625
6.01472298481428	0.5963134765625
7.01472298228953	0.5963134765625
8.01472297976477	0.5963134765625
9.01472297724001	0.5963134765625
10.0147229747153	0.59661865234375
11.0147229721905	0.59661865234375
12.0147229696657	0.59661865234375
13.014722967141	0.596923828125
14.0147229646162	0.596923828125
15.0147229620915	0.596923828125
16.0147229595667	0.596923828125
17.014722957042	0.596923828125
18.0147229545172	0.59722900390625
19.0147229519924	0.59722900390625
20.0147229494677	0.59722900390625
21.0147229469429	0.59722900390625
22.0147229444182	0.59722900390625
23.0147229418934	0.5975341796875
24.0147229393687	0.5975341796875
25.0147229368439	0.5975341796875
26.0147229343191	0.5975341796875
27.0147229317944	0.59783935546875
28.0147229292696	0.59783935546875
29.0147229267449	0.59783935546875
30.0147229242201	0.59783935546875
31.0147229216954	0.59783935546875
32.0147229191706	0.59814453125
33.0147229166458	0.59814453125
34.0147229141211	0.59814453125
35.0147229115963	0.59814453125
36.0147229090716	0.59814453125
37.0147229065468	0.59844970703125
38.0147229040221	0.59844970703125
39.0147229014973	0.59844970703125
40.0147228989725	0.59844970703125
41.0147228964478	0.59844970703125
42.014722893923	0.59844970703125
43.0147228913983	0.5987548828125
44.0147228888735	0.5987548828125
45.0147228863487	0.5987548828125
46.014722883824	0.5987548828125
47.0147228812992	0.59906005859375
48.0147228787745	0.59906005859375
49.0147228762497	0.59906005859375
50.014722873725	0.59906005859375
51.0147228712002	0.599365234375
52.0147228686754	0.599365234375
53.0147228661507	0.599365234375
54.0147228636259	0.599365234375
55.0147228611012	0.599365234375
56.0147228585764	0.599365234375
57.0147228560517	0.599365234375
58.0147228535269	0.59967041015625
59.0147228510021	0.59967041015625
60.0147228484774	0.59967041015625
61.0147228459526	0.5999755859375
62.0147228434279	0.5999755859375
63.0147228409031	0.5999755859375
64.0147228383784	0.5999755859375
65.0147228358536	0.60028076171875
66.0147228333288	0.60028076171875
67.0147228308041	0.60028076171875
68.0147228282793	0.6005859375
69.0147228257546	0.6005859375
70.0147228232298	0.6005859375
71.0147228207051	0.6005859375
72.0147228181803	0.6005859375
73.0147228156555	0.60089111328125
74.0147228131308	0.60089111328125
75.014722810606	0.60089111328125
76.0147228080813	0.60089111328125
77.0147228055565	0.60089111328125
78.0147228030318	0.60089111328125
79.014722800507	0.6011962890625
80.0147227979822	0.6011962890625
81.0147227954575	0.6011962890625
82.0147227929327	0.6011962890625
83.014722790408	0.6011962890625
84.0147227878832	0.60150146484375
85.0147227853585	0.60150146484375
86.0147227828337	0.60150146484375
87.0147227803089	0.60150146484375
88.0147227777842	0.601806640625
89.0147227752594	0.601806640625
90.0147227727347	0.601806640625
91.0147227702099	0.601806640625
92.0147227676852	0.601806640625
93.0147227651604	0.60211181640625
94.0147227626356	0.60211181640625
95.0147227601109	0.60211181640625
96.0147227575861	0.60211181640625
97.0147227550614	0.60211181640625
98.0147227525366	0.60211181640625
99.0147227500119	0.60211181640625
100.014722747487	0.6024169921875
101.014722744962	0.6024169921875
102.014722742438	0.6024169921875
103.014722739913	0.6024169921875
104.014722737388	0.6024169921875
105.014722734863	0.60272216796875
106.014722732339	0.60272216796875
107.014722729814	0.60272216796875
108.014722727289	0.60272216796875
109.014722724764	0.60302734375
110.01472272224	0.60302734375
111.014722719715	0.60302734375
112.01472271719	0.60302734375
113.014722714665	0.60302734375
114.01472271214	0.60302734375
115.014722709616	0.60272216796875
116.014722707091	0.60272216796875
117.014722704566	0.60272216796875
118.014722702041	0.6024169921875
119.014722699517	0.6024169921875
120.014722696992	0.6024169921875
121.014722694467	0.6024169921875
122.014722691942	0.6024169921875
123.014722689418	0.6024169921875
124.014722686893	0.6024169921875
125.014722684368	0.6024169921875
126.014722681843	0.6024169921875
127.014722679319	0.6024169921875
128.014722676794	0.6024169921875
129.014722674269	0.6024169921875
130.014722671744	0.60272216796875
131.01472266922	0.60272216796875
132.014722666695	0.60272216796875
133.01472266417	0.60272216796875
134.014722661645	0.60272216796875
135.014722659121	0.60272216796875
136.014722656596	0.60272216796875
137.014722654071	0.60302734375
138.014722651546	0.60302734375
139.014722649022	0.60302734375
140.014722646497	0.60302734375
141.014722643972	0.60333251953125
142.014722641447	0.60302734375
143.014722638923	0.60333251953125
144.014722636398	0.60333251953125
145.014722633873	0.60333251953125
146.014722631348	0.60333251953125
147.014722628824	0.60333251953125
148.014722626299	0.60333251953125
149.014722623774	0.60333251953125
150.014722621249	0.6036376953125
151.014722618724	0.6036376953125
152.0147226162	0.6036376953125
153.014722613675	0.6036376953125
154.01472261115	0.6036376953125
155.014722608625	0.60394287109375
156.014722606101	0.60394287109375
157.014722603576	0.60394287109375
158.014722601051	0.60394287109375
159.014722598526	0.60394287109375
160.014722596002	0.60394287109375
161.014722593477	0.604248046875
162.014722590952	0.604248046875
163.014722588427	0.604248046875
164.014722585903	0.604248046875
165.014722583378	0.604248046875
166.014722580853	0.604248046875
167.014722578328	0.60455322265625
168.014722575804	0.60455322265625
169.014722573279	0.60455322265625
170.014722570754	0.60455322265625
171.014722568229	0.60455322265625
172.014722565705	0.60455322265625
173.01472256318	0.6048583984375
174.014722560655	0.6048583984375
175.01472255813	0.6048583984375
176.014722555606	0.60516357421875
177.014722553081	0.60516357421875
178.014722550556	0.6048583984375
179.014722548031	0.60516357421875
180.014722545507	0.60516357421875
181.014722542982	0.60516357421875
