Time (s)	WE(1).Potential (V)
4456.82761974759	0.59600830078125
4457.82761974507	0.58807373046875
4458.82761974254	0.5810546875
4459.82761974002	0.57464599609375
4460.82761973749	0.56854248046875
4461.82761973497	0.56304931640625
4462.82761973244	0.55816650390625
4463.82761972992	0.55328369140625
4464.82761972739	0.54931640625
4465.82761972487	0.54534912109375
4466.82761972234	0.54168701171875
4467.82761971982	0.53802490234375
4468.82761971729	0.53497314453125
4469.82761971477	0.53192138671875
4470.82761971224	0.5291748046875
4471.82761970972	0.52642822265625
4472.8276197072	0.5242919921875
4473.82761970467	0.5218505859375
4474.82761970215	0.51971435546875
4475.82761969962	0.51788330078125
4476.8276196971	0.51605224609375
4477.82761969457	0.51422119140625
4478.82761969205	0.5126953125
4479.82761968952	0.51116943359375
4480.827619687	0.50994873046875
4481.82761968447	0.5084228515625
4482.82761968195	0.5072021484375
4483.82761967942	0.50628662109375
4484.8276196769	0.50506591796875
4485.82761967437	0.504150390625
4486.82761967185	0.50323486328125
4487.82761966932	0.5023193359375
4488.8276196668	0.501708984375
4489.82761966427	0.50079345703125
4490.82761966175	0.50018310546875
4491.82761965923	0.49957275390625
4492.8276196567	0.498809814453125
4493.82761965418	0.498321533203125
4494.82761965165	0.497772216796875
4495.82761964913	0.497283935546875
4496.8276196466	0.49676513671875
4497.82761964408	0.496307373046875
4498.82761964155	0.495941162109375
4499.82761963903	0.49554443359375
4500.8276196365	0.49517822265625
4501.82761963398	0.494873046875
4502.82761963145	0.49456787109375
4503.82761962893	0.494293212890625
4504.8276196264	0.4940185546875
4505.82761962388	0.493804931640625
4506.82761962135	0.493560791015625
4507.82761961883	0.493316650390625
4508.8276196163	0.493133544921875
4509.82761961378	0.492950439453125
4510.82761961125	0.492889404296875
4511.82761960873	0.492706298828125
4512.82761960621	0.4925537109375
4513.82761960368	0.492401123046875
4514.82761960116	0.49224853515625
4515.82761959863	0.49212646484375
4516.82761959611	0.492034912109375
4517.82761959358	0.491943359375
4518.82761959106	0.4918212890625
4519.82761958853	0.49176025390625
4520.82761958601	0.491668701171875
4521.82761958348	0.4915771484375
4522.82761958096	0.491485595703125
4523.82761957843	0.49139404296875
4524.82761957591	0.4913330078125
4525.82761957338	0.49127197265625
4526.82761957086	0.4912109375
4527.82761956833	0.49114990234375
4528.82761956581	0.49114990234375
4529.82761956328	0.491119384765625
4530.82761956076	0.490936279296875
4531.82761955823	0.49102783203125
4532.82761955571	0.490997314453125
4533.82761955319	0.490875244140625
4534.82761955066	0.4908447265625
4535.82761954814	0.490814208984375
4536.82761954561	0.49078369140625
4537.82761954309	0.490753173828125
4538.82761954056	0.490753173828125
4539.82761953804	0.49078369140625
4540.82761953551	0.4906005859375
4541.82761953299	0.490692138671875
4542.82761953046	0.490753173828125
4543.82761952794	0.490753173828125
4544.82761952541	0.490692138671875
4545.82761952289	0.490692138671875
4546.82761952036	0.49072265625
4547.82761951784	0.490692138671875
4548.82761951531	0.49072265625
4549.82761951279	0.49041748046875
4550.82761951026	0.49041748046875
4551.82761950774	0.490386962890625
4552.82761950521	0.490325927734375
4553.82761950269	0.490264892578125
4554.82761950017	0.490325927734375
4555.82761949764	0.490264892578125
4556.82761949512	0.490264892578125
4557.82761949259	0.490264892578125
4558.82761949007	0.490264892578125
4559.82761948754	0.490234375
4560.82761948502	0.49017333984375
4561.82761948249	0.49017333984375
4562.82761947997	0.490203857421875
4563.82761947744	0.49017333984375
4564.82761947492	0.490203857421875
4565.82761947239	0.49017333984375
4566.82761946987	0.490142822265625
4567.82761946734	0.49017333984375
4568.82761946482	0.490203857421875
4569.82761946229	0.490203857421875
4570.82761945977	0.49017333984375
4571.82761945724	0.490234375
4572.82761945472	0.490203857421875
4573.82761945219	0.490203857421875
4574.82761944967	0.490234375
4575.82761944715	0.490234375
4576.82761944462	0.490234375
4577.8276194421	0.490203857421875
4578.82761943957	0.490203857421875
4579.82761943705	0.490203857421875
4580.82761943452	0.490203857421875
4581.827619432	0.4901123046875
4582.82761942947	0.490020751953125
4583.82761942695	0.4898681640625
4584.82761942442	0.489837646484375
4585.8276194219	0.48980712890625
4586.82761941937	0.489776611328125
4587.82761941685	0.489776611328125
4588.82761941432	0.489837646484375
4589.8276194118	0.489837646484375
4590.82761940927	0.489837646484375
4591.82761940675	0.4898681640625
4592.82761940422	0.489837646484375
4593.8276194017	0.489898681640625
4594.82761939918	0.489898681640625
4595.82761939665	0.48992919921875
4596.82761939413	0.489959716796875
4597.8276193916	0.489990234375
4598.82761938908	0.489990234375
4599.82761938655	0.490020751953125
4600.82761938403	0.49005126953125
4601.8276193815	0.49005126953125
4602.82761937898	0.489990234375
4603.82761937645	0.490081787109375
4604.82761937393	0.49005126953125
4605.8276193714	0.49005126953125
4606.82761936888	0.48992919921875
4607.82761936635	0.489959716796875
4608.82761936383	0.4898681640625
4609.8276193613	0.49005126953125
4610.82761935878	0.489990234375
4611.82761935625	0.490020751953125
4612.82761935373	0.490081787109375
4613.8276193512	0.4901123046875
4614.82761934868	0.4901123046875
4615.82761934616	0.4901123046875
4616.82761934363	0.489959716796875
4617.82761934111	0.49005126953125
4618.82761933858	0.49005126953125
4619.82761933606	0.490081787109375
4620.82761933353	0.48980712890625
4621.82761933101	0.49005126953125
4622.82761932848	0.489990234375
4623.82761932596	0.49005126953125
4624.82761932343	0.490020751953125
4625.82761932091	0.489898681640625
4626.82761931838	0.490020751953125
4627.82761931586	0.489959716796875
4628.82761931333	0.489990234375
4629.82761931081	0.490020751953125
4630.82761930828	0.489898681640625
4631.82761930576	0.489990234375
4632.82761930323	0.489959716796875
4633.82761930071	0.489959716796875
4634.82761929818	0.489990234375
4635.82761929566	0.489959716796875
