Time (s)	WE(1).Potential (V)
681.553690279242	0.767822265625
682.553690276718	0.58990478515625
683.553690274193	0.443450927734375
684.553690271668	0.330352783203125
685.553690269143	0.255645751953125
686.553690266619	0.220794677734375
687.553690264094	0.2042236328125
688.553690261569	0.194122314453125
689.553690259044	0.186920166015625
690.55369025652	0.18133544921875
691.553690253995	0.176788330078125
692.55369025147	0.172943115234375
693.553690248945	0.169647216796875
694.553690246421	0.166717529296875
695.553690243896	0.164093017578125
696.553690241371	0.161712646484375
697.553690238846	0.159576416015625
698.553690236321	0.157562255859375
699.553690233797	0.155731201171875
700.553690231272	0.154022216796875
701.553690228747	0.152435302734375
702.553690226222	0.15093994140625
703.553690223698	0.1495361328125
704.553690221173	0.148193359375
705.553690218648	0.146942138671875
706.553690216123	0.145751953125
707.553690213599	0.144622802734375
708.553690211074	0.1435546875
709.553690208549	0.14251708984375
710.553690206024	0.14154052734375
711.5536902035	0.140594482421875
712.553690200975	0.139678955078125
713.55369019845	0.138824462890625
714.553690195925	0.137969970703125
715.553690193401	0.137176513671875
716.553690190876	0.136383056640625
717.553690188351	0.135650634765625
718.553690185826	0.13494873046875
719.553690183302	0.13427734375
720.553690180777	0.133575439453125
721.553690178252	0.1329345703125
722.553690175727	0.132293701171875
723.553690173203	0.131683349609375
724.553690170678	0.131103515625
725.553690168153	0.13055419921875
726.553690165628	0.129974365234375
727.553690163104	0.12945556640625
728.553690160579	0.12890625
729.553690158054	0.128387451171875
730.553690155529	0.127899169921875
731.553690153004	0.127410888671875
732.55369015048	0.126953125
733.553690147955	0.126495361328125
734.55369014543	0.126068115234375
735.553690142905	0.125640869140625
736.553690140381	0.125213623046875
737.553690137856	0.12481689453125
738.553690135331	0.1243896484375
739.553690132806	0.1240234375
740.553690130282	0.12359619140625
741.553690127757	0.123260498046875
742.553690125232	0.12286376953125
743.553690122707	0.12249755859375
744.553690120183	0.122161865234375
745.553690117658	0.121826171875
746.553690115133	0.121490478515625
747.553690112608	0.12115478515625
748.553690110084	0.120849609375
749.553690107559	0.12054443359375
750.553690105034	0.1202392578125
751.553690102509	0.11993408203125
752.553690099985	0.119659423828125
753.55369009746	0.119354248046875
754.553690094935	0.11907958984375
755.55369009241	0.118804931640625
756.553690089886	0.1185302734375
757.553690087361	0.118255615234375
758.553690084836	0.118011474609375
759.553690082311	0.117767333984375
760.553690079787	0.117523193359375
761.553690077262	0.117279052734375
762.553690074737	0.117034912109375
763.553690072212	0.116790771484375
764.553690069687	0.1165771484375
765.553690067163	0.1163330078125
766.553690064638	0.116119384765625
767.553690062113	0.115875244140625
768.553690059588	0.11566162109375
769.553690057064	0.115447998046875
770.553690054539	0.115234375
771.553690052014	0.115020751953125
772.553690049489	0.114837646484375
773.553690046965	0.1146240234375
774.55369004444	0.11444091796875
775.553690041915	0.1142578125
776.55369003939	0.11407470703125
777.553690036866	0.113861083984375
778.553690034341	0.11370849609375
779.553690031816	0.113525390625
780.553690029291	0.11334228515625
781.553690026767	0.1131591796875
782.553690024242	0.11297607421875
783.553690021717	0.112823486328125
784.553690019192	0.1126708984375
785.553690016668	0.11248779296875
786.553690014143	0.112335205078125
787.553690011618	0.1121826171875
788.553690009093	0.112030029296875
789.553690006569	0.11187744140625
790.553690004044	0.111724853515625
791.553690001519	0.111572265625
792.553689998994	0.111419677734375
793.55368999647	0.111297607421875
794.553689993945	0.11114501953125
795.55368999142	0.11102294921875
796.553689988895	0.110870361328125
797.553689986371	0.110748291015625
798.553689983846	0.110626220703125
799.553689981321	0.1104736328125
800.553689978796	0.110382080078125
