Time (s)	WE(1).Potential (V)
1.98776499498138	0.155853271484375
2.98776499245662	0.155853271484375
3.98776498993186	0.155853271484375
4.9877649874071	0.155853271484375
5.98776498488235	0.15582275390625
6.98776498235759	0.15582275390625
7.98776497983283	0.15582275390625
8.98776497730807	0.15582275390625
9.98776497478332	0.15582275390625
10.9877649722586	0.15582275390625
11.9877649697338	0.15582275390625
12.987764967209	0.15582275390625
13.9877649646843	0.15582275390625
14.9877649621595	0.155792236328125
15.9877649596348	0.15582275390625
16.98776495711	0.155792236328125
17.9877649545853	0.155792236328125
18.9877649520605	0.155792236328125
19.9877649495357	0.15576171875
20.987764947011	0.15576171875
21.9877649444862	0.15576171875
22.9877649419615	0.15576171875
23.9877649394367	0.15576171875
24.987764936912	0.15576171875
25.9877649343872	0.155731201171875
26.9877649318624	0.155731201171875
27.9877649293377	0.155731201171875
28.9877649268129	0.15570068359375
29.9877649242882	0.15570068359375
30.9877649217634	0.15570068359375
31.9877649192387	0.15570068359375
32.9877649167139	0.15570068359375
33.9877649141891	0.15570068359375
34.9877649116644	0.15570068359375
35.9877649091396	0.15570068359375
36.9877649066149	0.15570068359375
37.9877649040901	0.15570068359375
38.9877649015654	0.15570068359375
39.9877648990406	0.155670166015625
40.9877648965158	0.155670166015625
41.9877648939911	0.155670166015625
42.9877648914663	0.155670166015625
43.9877648889416	0.155670166015625
44.9877648864168	0.155670166015625
45.9877648838921	0.155670166015625
46.9877648813673	0.155670166015625
47.9877648788425	0.155670166015625
48.9877648763178	0.155670166015625
49.987764873793	0.155670166015625
50.9877648712683	0.1556396484375
51.9877648687435	0.1556396484375
52.9877648662188	0.1556396484375
53.987764863694	0.1556396484375
54.9877648611692	0.1556396484375
55.9877648586445	0.155609130859375
56.9877648561197	0.155609130859375
57.987764853595	0.155609130859375
58.9877648510702	0.155609130859375
59.9877648485455	0.155609130859375
60.9877648460207	0.15557861328125
