Time (s)	WE(1).Potential (V)
1.98322099499285	0.4371337890625
2.98322099246809	0.43829345703125
3.98322098994333	0.439453125
4.98322098741858	0.4405517578125
5.98322098489382	0.441650390625
6.98322098236906	0.442718505859375
7.9832209798443	0.443756103515625
8.98322097731955	0.44476318359375
9.98322097479479	0.445770263671875
10.98322097227	0.446746826171875
11.9832209697453	0.447723388671875
12.9832209672205	0.44866943359375
13.9832209646958	0.4495849609375
14.983220962171	0.45050048828125
15.9832209596462	0.451416015625
16.9832209571215	0.452301025390625
17.9832209545967	0.453155517578125
18.983220952072	0.454010009765625
19.9832209495472	0.454864501953125
20.9832209470225	0.4556884765625
21.9832209444977	0.45648193359375
22.9832209419729	0.457305908203125
23.9832209394482	0.45806884765625
24.9832209369234	0.4588623046875
25.9832209343987	0.459625244140625
26.9832209318739	0.46038818359375
27.9832209293492	0.46112060546875
28.9832209268244	0.46185302734375
29.9832209242996	0.462554931640625
30.9832209217749	0.463287353515625
31.9832209192501	0.4639892578125
32.9832209167254	0.464691162109375
33.9832209142006	0.465362548828125
34.9832209116759	0.466064453125
35.9832209091511	0.46673583984375
36.9832209066263	0.4674072265625
37.9832209041016	0.468048095703125
38.9832209015768	0.46868896484375
39.9832208990521	0.469329833984375
40.9832208965273	0.469970703125
41.9832208940026	0.470611572265625
42.9832208914778	0.471221923828125
43.983220888953	0.47186279296875
44.9832208864283	0.472442626953125
45.9832208839035	0.473052978515625
46.9832208813788	0.473663330078125
47.983220878854	0.4742431640625
48.9832208763293	0.474822998046875
49.9832208738045	0.47540283203125
50.9832208712797	0.475982666015625
51.983220868755	0.476531982421875
52.9832208662302	0.477081298828125
53.9832208637055	0.477630615234375
54.9832208611807	0.478179931640625
55.983220858656	0.478729248046875
56.9832208561312	0.479278564453125
57.9832208536064	0.479827880859375
58.9832208510817	0.4803466796875
59.9832208485569	0.48089599609375
60.9832208460322	0.481414794921875
61.9832208435074	0.48193359375
62.9832208409827	0.482452392578125
63.9832208384579	0.482940673828125
64.9832208359331	0.483428955078125
65.9832208334084	0.48394775390625
66.9832208308836	0.48443603515625
67.9832208283589	0.48492431640625
68.9832208258341	0.48541259765625
69.9832208233094	0.48590087890625
70.9832208207846	0.486358642578125
71.9832208182598	0.486846923828125
72.9832208157351	0.4873046875
73.9832208132103	0.48779296875
74.9832208106856	0.488250732421875
75.9832208081608	0.48870849609375
76.9832208056361	0.4891357421875
77.9832208031113	0.489593505859375
78.9832208005865	0.49005126953125
79.9832207980618	0.490509033203125
80.983220795537	0.490936279296875
81.9832207930123	0.49139404296875
82.9832207904875	0.4918212890625
83.9832207879628	0.49224853515625
84.983220785438	0.492645263671875
85.9832207829132	0.493072509765625
86.9832207803885	0.493499755859375
87.9832207778637	0.493927001953125
88.983220775339	0.49432373046875
89.9832207728142	0.494720458984375
90.9832207702894	0.495147705078125
91.9832207677647	0.49554443359375
92.9832207652399	0.4959716796875
93.9832207627152	0.496368408203125
94.9832207601904	0.496795654296875
95.9832207576657	0.4971923828125
96.9832207551409	0.497589111328125
97.9832207526161	0.49798583984375
98.9832207500914	0.498382568359375
99.9832207475666	0.498748779296875
100.983220745042	0.4991455078125
101.983220742517	0.499542236328125
102.983220739992	0.50018310546875
103.983220737468	0.50048828125
104.983220734943	0.50079345703125
105.983220732418	0.50140380859375
106.983220729893	0.501708984375
107.983220727369	0.50201416015625
108.983220724844	0.5023193359375
109.983220722319	0.50262451171875
110.983220719794	0.50323486328125
111.98322071727	0.5035400390625
112.983220714745	0.50384521484375
113.98322071222	0.504150390625
114.983220709695	0.50445556640625
115.983220707171	0.5047607421875
116.983220704646	0.50506591796875
117.983220702121	0.50567626953125
118.983220699596	0.5059814453125
119.983220697071	0.50628662109375
120.983220694547	0.506591796875
121.983220692022	0.50689697265625
122.983220689497	0.5072021484375
123.983220686972	0.50750732421875
124.983220684448	0.5078125
125.983220681923	0.5084228515625
126.983220679398	0.50872802734375
127.983220676873	0.509033203125
128.983220674349	0.50933837890625
129.983220671824	0.5096435546875
130.983220669299	0.50994873046875
131.983220666774	0.51025390625
132.98322066425	0.51055908203125
133.983220661725	0.5108642578125
134.9832206592	0.51116943359375
135.983220656675	0.511474609375
136.983220654151	0.51177978515625
137.983220651626	0.5120849609375
138.983220649101	0.51239013671875
139.983220646576	0.5126953125
140.983220644052	0.51300048828125
141.983220641527	0.5133056640625
142.983220639002	0.51361083984375
143.983220636477	0.513916015625
144.983220633953	0.51422119140625
145.983220631428	0.5145263671875
146.983220628903	0.51483154296875
147.983220626378	0.51513671875
148.983220623854	0.51544189453125
149.983220621329	0.5157470703125
150.983220618804	0.51605224609375
151.983220616279	0.516357421875
152.983220613754	0.516357421875
153.98322061123	0.51666259765625
154.983220608705	0.5169677734375
155.98322060618	0.51727294921875
156.983220603655	0.517578125
157.983220601131	0.51788330078125
158.983220598606	0.5181884765625
159.983220596081	0.51849365234375
160.983220593556	0.518798828125
161.983220591032	0.51910400390625
162.983220588507	0.5194091796875
163.983220585982	0.5194091796875
164.983220583457	0.51971435546875
165.983220580933	0.52001953125
166.983220578408	0.52032470703125
167.983220575883	0.5206298828125
168.983220573358	0.52093505859375
169.983220570834	0.521240234375
170.983220568309	0.521240234375
171.983220565784	0.52154541015625
172.983220563259	0.5218505859375
173.983220560735	0.52215576171875
174.98322055821	0.5224609375
175.983220555685	0.52276611328125
176.98322055316	0.5230712890625
177.983220550636	0.5230712890625
178.983220548111	0.52337646484375
179.983220545586	0.523681640625
180.983220543061	0.52398681640625
