Time (s)	WE(1).Current (A)	WE(1).Potential (V)
61.108455845716	5.7708740234375E-07	0.99853515625
61.2061118454694	5.6243896484375E-07	0.99517822265625
61.3037678452229	5.3466796875E-07	0.99334716796875
61.4014238449763	5.157470703125E-07	0.99029541015625
61.4990798447297	5.0506591796875E-07	0.98602294921875
61.5967358444832	4.9224853515625E-07	0.985107421875
61.6943918442366	4.730224609375E-07	0.98236083984375
61.7920478439901	4.4921875E-07	0.9808349609375
61.8897038437435	4.40673828125E-07	0.9765625
61.987359843497	4.2633056640625E-07	0.9759521484375
62.0850158432504	4.1290283203125E-07	0.9722900390625
62.1826718430038	4.071044921875E-07	0.9716796875
62.2803278427573	3.961181640625E-07	0.966796875
62.3779838425107	3.7872314453125E-07	0.96649169921875
62.4756398422642	3.6834716796875E-07	0.96221923828125
62.5732958420176	3.594970703125E-07	0.9619140625
62.6709518417711	3.5186767578125E-07	0.95672607421875
62.7686078415245	3.3294677734375E-07	0.95733642578125
62.8662638412779	3.399658203125E-07	0.95428466796875
62.9639198410314	3.2806396484375E-07	0.9521484375
63.0615758407848	3.21044921875E-07	0.94879150390625
63.1592318405383	3.0731201171875E-07	0.94635009765625
63.2568878402917	2.972412109375E-07	0.9442138671875
63.3545438400452	2.947998046875E-07	0.941162109375
63.4521998397986	2.84423828125E-07	0.93780517578125
63.549855839552	2.8167724609375E-07	0.93536376953125
63.6475118393055	2.7862548828125E-07	0.9344482421875
63.7451678390589	2.6885986328125E-07	0.93017578125
63.8428238388124	2.6275634765625E-07	0.9283447265625
63.9404798385658	2.5421142578125E-07	0.92559814453125
64.0381358383192	2.5177001953125E-07	0.9246826171875
64.1357918380727	2.423095703125E-07	0.921630859375
64.2334478378261	2.5115966796875E-07	0.91827392578125
64.3311038375796	2.4658203125E-07	0.9149169921875
64.428759837333	2.2979736328125E-07	0.9149169921875
64.5264158370865	2.23388671875E-07	0.91278076171875
64.6240718368399	2.197265625E-07	0.90850830078125
64.7217278365933	2.191162109375E-07	0.90789794921875
64.8193838363468	2.1240234375E-07	0.9039306640625
64.9170398361002	2.20947265625E-07	0.9027099609375
65.0146958358537	2.1759033203125E-07	0.89874267578125
65.1123518356071	2.0355224609375E-07	0.897216796875
65.2100078353606	2.020263671875E-07	0.8953857421875
65.307663835114	2.0111083984375E-07	0.8929443359375
65.4053198348674	1.9683837890625E-07	0.888671875
65.5029758346209	1.8768310546875E-07	0.888671875
65.6006318343743	1.983642578125E-07	0.885009765625
65.6982878341278	1.96533203125E-07	0.8819580078125
65.7959438338812	1.8707275390625E-07	0.8782958984375
65.8935998336347	1.8310546875E-07	0.87646484375
65.9912558333881	1.79443359375E-07	0.87432861328125
66.0889118331415	1.788330078125E-07	0.8721923828125
66.186567832895	1.739501953125E-07	0.870361328125
66.2842238326484	1.7822265625E-07	0.86761474609375
66.3818798324019	1.84326171875E-07	0.86669921875
66.4795358321553	1.7364501953125E-07	0.8642578125
66.5771918319087	1.690673828125E-07	0.86151123046875
66.6748478316622	1.6754150390625E-07	0.858154296875
66.7725038314156	1.678466796875E-07	0.85601806640625
66.8701598311691	1.5899658203125E-07	0.8526611328125
66.9678158309225	1.6448974609375E-07	0.8514404296875
67.065471830676	1.7669677734375E-07	0.8489990234375
67.1631278304294	1.5899658203125E-07	0.84686279296875
67.2607838301828	1.5716552734375E-07	0.8447265625
67.3584398299363	1.5380859375E-07	0.841064453125
67.4560958296897	1.495361328125E-07	0.838623046875
67.5537518294432	1.470947265625E-07	0.83465576171875
67.6514078291966	1.4892578125E-07	0.83404541015625
67.7490638289501	1.5777587890625E-07	0.83038330078125
67.8467198287035	1.5106201171875E-07	0.82794189453125
67.9443758284569	1.4678955078125E-07	0.826416015625
68.0420318282104	1.4678955078125E-07	0.82305908203125
68.1396878279638	1.3885498046875E-07	0.82183837890625
68.2373438277173	1.3763427734375E-07	0.81787109375
68.3349998274707	1.3946533203125E-07	0.81634521484375
68.4326558272242	1.513671875E-07	0.814208984375
68.5303118269776	1.3916015625E-07	0.81146240234375
68.627967826731	1.3641357421875E-07	0.8087158203125
68.7256238264845	1.42822265625E-07	0.806884765625
68.8232798262379	1.3427734375E-07	0.80352783203125
68.9209358259914	1.2664794921875E-07	0.80078125
69.0185918257448	1.348876953125E-07	0.79833984375
69.1162478254982	1.4251708984375E-07	0.79833984375
69.2139038252517	1.3458251953125E-07	0.79345703125
69.3115598250051	1.214599609375E-07	0.79345703125
69.4092158247586	1.287841796875E-07	0.7904052734375
69.506871824512	1.2786865234375E-07	0.7879638671875
69.6045278242655	1.1932373046875E-07	0.78399658203125
69.7021838240189	1.2481689453125E-07	0.7830810546875
69.7998398237723	1.3397216796875E-07	0.78155517578125
69.8974958235258	1.275634765625E-07	0.77728271484375
69.9951518232792	1.2054443359375E-07	0.7763671875
70.0928078230327	1.190185546875E-07	0.77362060546875
70.1904638227861	1.129150390625E-07	0.76904296875
70.2881198225396	1.18408203125E-07	0.767822265625
70.385775822293	1.1474609375E-07	0.7659912109375
70.4834318220464	1.2603759765625E-07	0.76171875
70.5810878217999	1.165771484375E-07	0.75927734375
70.6787438215533	1.07421875E-07	0.7574462890625
70.7763998213068	1.165771484375E-07	0.75714111328125
70.8740558210602	1.1138916015625E-07	0.7525634765625
70.9717118208137	1.0650634765625E-07	0.75140380859375
71.0693678205671	1.129150390625E-07	0.74822998046875
71.1670238203205	1.202392578125E-07	0.746337890625
71.264679820074	1.13525390625E-07	0.743896484375
71.3623358198274	1.068115234375E-07	0.7413330078125
71.4599918195809	1.0986328125E-07	0.737518310546875
71.5576478193343	1.0406494140625E-07	0.73638916015625
71.6553038190877	1.0040283203125E-07	0.73431396484375
71.7529598188412	1.0040283203125E-07	0.7301025390625
71.8506158185946	1.129150390625E-07	0.72882080078125
71.9482718183481	1.0528564453125E-07	0.7252197265625
72.0459278181015	9.918212890625E-08	0.722686767578125
72.143583817855	9.94873046875E-08	0.721832275390625
72.2412398176084	9.6435546875E-08	0.717742919921875
72.3388958173618	9.490966796875E-08	0.715179443359375
72.4365518171153	9.918212890625E-08	0.7139892578125
72.5342078168687	9.8297119140625E-08	0.7105712890625
72.6318638166222	9.1156005859375E-08	0.709228515625
72.7295198163756	8.3984375E-08	0.706390380859375
72.8271758161291	8.111572265625E-08	0.703125
72.9248318158825	8.1390380859375E-08	0.701995849609375
73.0224878156359	7.666015625E-08	0.699188232421875
73.1201438153894	8.2855224609375E-08	0.696075439453125
73.2177998151428	9.21630859375E-08	0.6934814453125
73.3154558148963	8.612060546875E-08	0.6923828125
73.4131118146497	7.3486328125E-08	0.68829345703125
73.5107678144032	8.135986328125E-08	0.68621826171875
73.6084238141566	7.537841796875E-08	0.68511962890625
73.70607981391	7.01904296875E-08	0.681427001953125
73.8037358136635	7.18994140625E-08	0.680328369140625
73.9013918134169	8.5113525390625E-08	0.678070068359375
73.9990478131704	8.04443359375E-08	0.673828125
74.0967038129238	7.208251953125E-08	0.672393798828125
74.1943598126772	7.4951171875E-08	0.669097900390625
74.2920158124307	6.79931640625E-08	0.6668701171875
74.3896718121841	6.610107421875E-08	0.664398193359375
74.4873278119376	6.43310546875E-08	0.662017822265625
74.584983811691	7.6629638671875E-08	0.66064453125
74.6826398114445	7.9193115234375E-08	0.65704345703125
74.7802958111979	6.7230224609375E-08	0.655975341796875
74.8779518109513	6.3201904296875E-08	0.65301513671875
74.9756078107048	6.2530517578125E-08	0.649932861328125
75.0732638104582	6.3262939453125E-08	0.64837646484375
75.1709198102117	5.8258056640625E-08	0.646270751953125
75.2685758099651	7.232666015625E-08	0.643402099609375
75.3662318097186	6.38427734375E-08	0.6396484375
75.463887809472	6.005859375E-08	0.638214111328125
75.5615438092254	6.0028076171875E-08	0.63690185546875
75.6591998089789	5.9326171875E-08	0.633392333984375
75.7568558087323	5.8441162109375E-08	0.63177490234375
75.8545118084858	5.322265625E-08	0.628753662109375
75.9521678082392	6.53076171875E-08	0.6256103515625
76.0498238079927	6.0577392578125E-08	0.62335205078125
76.1474798077461	5.181884765625E-08	0.621002197265625
76.2451358074995	5.3558349609375E-08	0.61956787109375
76.342791807253	5.609130859375E-08	0.61572265625
76.4404478070064	5.4901123046875E-08	0.614410400390625
76.5381038067599	4.107666015625E-08	0.611602783203125
76.6357598065133	5.914306640625E-08	0.6092529296875
76.7334158062667	5.523681640625E-08	0.605316162109375
76.8310718060202	4.5257568359375E-08	0.602935791015625
76.9287278057736	4.815673828125E-08	0.602752685546875
77.0263838055271	4.6783447265625E-08	0.599700927734375
77.1240398052805	4.6234130859375E-08	0.597747802734375
77.221695805034	3.64990234375E-08	0.595458984375
77.3193518047874	4.87060546875E-08	0.59228515625
77.4170078045408	5.1544189453125E-08	0.588592529296875
77.5146638042943	3.90625E-08	0.5867919921875
77.6123198040477	4.0008544921875E-08	0.585418701171875
77.7099758038012	3.826904296875E-08	0.58282470703125
77.8076318035546	4.2266845703125E-08	0.579010009765625
77.9052878033081	3.1524658203125E-08	0.577850341796875
78.0029438030615	4.01611328125E-08	0.575592041015625
78.1005998028149	4.1046142578125E-08	0.571563720703125
78.1982558025684	3.6865234375E-08	0.570098876953125
78.2959118023218	3.277587890625E-08	0.56829833984375
78.3935678020753	3.3966064453125E-08	0.56561279296875
78.4912238018287	3.3599853515625E-08	0.56280517578125
78.5888798015822	2.8350830078125E-08	0.560699462890625
78.6865358013356	3.460693359375E-08	0.556915283203125
78.784191801089	3.277587890625E-08	0.554718017578125
78.8818478008425	2.5543212890625E-08	0.55194091796875
78.9795038005959	2.5909423828125E-08	0.55072021484375
79.0771598003494	2.362060546875E-08	0.5489501953125
79.1748158001028	2.3529052734375E-08	0.5445556640625
79.2724717998562	2.008056640625E-08	0.5440673828125
79.3701277996097	2.2491455078125E-08	0.540374755859375
79.4677837993631	2.96630859375E-08	0.53717041015625
79.5654397991166	2.01416015625E-08	0.535369873046875
79.66309579887	1.3641357421875E-08	0.5325927734375
79.7607517986235	1.7425537109375E-08	0.5318603515625
79.8584077983769	1.605224609375E-08	0.527679443359375
79.9560637981303	5.31005859375E-09	0.52703857421875
80.0537197978838	1.5167236328125E-08	0.5235595703125
80.1513757976372	1.4984130859375E-08	0.520294189453125
80.2490317973907	1.318359375E-08	0.51898193359375
80.3466877971441	7.904052734375E-09	0.51519775390625
80.4443437968976	4.08935546875E-09	0.51458740234375
80.541999796651	4.730224609375E-09	0.51043701171875
80.6396557964044	-4.5166015625E-09	0.509765625
80.7373117961579	5.92041015625E-09	0.50732421875
80.8349677959113	1.4251708984375E-08	0.504547119140625
80.9326237956648	-4.2724609375E-10	0.502685546875
81.0302797954182	-5.859375E-09	0.49957275390625
81.1279357951717	-7.110595703125E-09	0.49578857421875
81.2255917949251	-1.025390625E-08	0.49365234375
81.3232477946785	-1.9195556640625E-08	0.49261474609375
81.420903794432	-1.617431640625E-08	0.4892578125
81.5185597941854	-2.44140625E-09	0.48699951171875
81.6162157939389	-6.744384765625E-09	0.48529052734375
81.7138717936923	-1.9073486328125E-08	0.483001708984375
81.8115277934457	-1.9317626953125E-08	0.4796142578125
81.9091837931992	-2.435302734375E-08	0.476593017578125
82.0068397929526	-2.886962890625E-08	0.47509765625
82.1044957927061	-2.8533935546875E-08	0.472137451171875
82.2021517924595	-1.202392578125E-08	0.4705810546875
82.299807792213	-1.98974609375E-08	0.466827392578125
82.3974637919664	-3.2012939453125E-08	0.465667724609375
82.4951197917198	-3.4454345703125E-08	0.461517333984375
82.5927757914733	-3.948974609375E-08	0.460296630859375
82.6904317912267	-3.8116455078125E-08	0.45733642578125
82.7880877909802	-4.2999267578125E-08	0.455474853515625
82.8857437907336	-3.3050537109375E-08	0.453704833984375
82.9833997904871	-3.57666015625E-08	0.44989013671875
83.0810557902405	-4.449462890625E-08	0.44891357421875
83.1787117899939	-4.9041748046875E-08	0.44482421875
83.2763677897474	-5.316162109375E-08	0.443634033203125
83.3740237895008	-5.0811767578125E-08	0.440216064453125
83.4716797892543	-6.298828125E-08	0.43768310546875
83.5693357890077	-5.047607421875E-08	0.43634033203125
83.6669917887612	-4.705810546875E-08	0.43365478515625
83.7646477885146	-6.3446044921875E-08	0.43170166015625
83.862303788268	-7.1685791015625E-08	0.4293212890625
83.9599597880215	-6.97021484375E-08	0.425628662109375
84.0576157877749	-7.5286865234375E-08	0.423004150390625
84.1552717875284	-7.9071044921875E-08	0.421875
84.2529277872818	-8.0841064453125E-08	0.41888427734375
84.3505837870352	-6.8328857421875E-08	0.416259765625
84.4482397867887	-7.4737548828125E-08	0.4139404296875
84.5458957865421	-8.740234375E-08	0.412353515625
84.6435517862956	-9.0087890625E-08	0.41021728515625
84.741207786049	-9.6038818359375E-08	0.406097412109375
84.8388637858025	-9.4512939453125E-08	0.405029296875
84.9365197855559	-1.031494140625E-07	0.40191650390625
85.0341757853093	-9.0087890625E-08	0.399993896484375
85.1318317850628	-1.0028076171875E-07	0.396209716796875
85.2294877848162	-1.075439453125E-07	0.39508056640625
85.3271437845697	-1.16668701171875E-07	0.39263916015625
85.4247997843231	-1.138916015625E-07	0.388763427734375
85.5224557840766	-1.24420166015625E-07	0.388397216796875
85.62011178383	-1.2774658203125E-07	0.383819580078125
85.7177677835834	-1.14532470703125E-07	0.381591796875
85.8154237833369	-1.18621826171875E-07	0.379608154296875
85.9130797830903	-1.29486083984375E-07	0.377471923828125
86.0107357828438	-1.3848876953125E-07	0.3759765625
86.1083917825972	-1.44989013671875E-07	0.372589111328125
86.2060477823507	-1.40869140625E-07	0.370941162109375
86.3037037821041	-1.56585693359375E-07	0.366973876953125
86.4013597818575	-1.48193359375E-07	0.36492919921875
86.499015781611	-1.47308349609375E-07	0.36376953125
86.5966717813644	-1.575927734375E-07	0.360626220703125
86.6943277811179	-1.6839599609375E-07	0.35699462890625
86.7919837808713	-1.708984375E-07	0.35479736328125
86.8896397806247	-1.76513671875E-07	0.352752685546875
86.9872957803782	-1.89605712890625E-07	0.34979248046875
87.0849517801316	-1.8634033203125E-07	0.34906005859375
87.1826077798851	-1.798095703125E-07	0.346527099609375
87.2802637796385	-1.87713623046875E-07	0.34405517578125
87.377919779392	-1.9573974609375E-07	0.3419189453125
87.4755757791454	-2.06634521484375E-07	0.338897705078125
87.5732317788988	-2.1343994140625E-07	0.335601806640625
87.6708877786523	-2.17987060546875E-07	0.3345947265625
87.7685437784057	-2.25982666015625E-07	0.3321533203125
87.8661997781592	-2.1441650390625E-07	0.328460693359375
87.9638557779126	-2.213134765625E-07	0.32708740234375
88.0615117776661	-2.3974609375E-07	0.324188232421875
88.1591677774195	-2.44873046875E-07	0.322662353515625
88.2568237771729	-2.49603271484375E-07	0.31878662109375
88.3544797769264	-2.56683349609375E-07	0.31805419921875
88.4521357766798	-2.6806640625E-07	0.31353759765625
88.5497917764333	-2.6434326171875E-07	0.311187744140625
88.6474477761867	-2.6861572265625E-07	0.310028076171875
88.7451037759402	-2.82928466796875E-07	0.306304931640625
88.8427597756936	-2.9486083984375E-07	0.304290771484375
88.940415775447	-2.9803466796875E-07	0.301483154296875
89.0380717752005	-3.056640625E-07	0.299774169921875
89.1357277749539	-3.704833984375E-07	0.2962646484375
89.2333837747074	-3.5675048828125E-07	0.29498291015625
89.3310397744608	-3.6041259765625E-07	0.29290771484375
89.4286957742142	-3.662109375E-07	0.290435791015625
89.5263517739677	-3.91845703125E-07	0.28692626953125
89.6240077737211	-4.0374755859375E-07	0.28436279296875
89.7216637734746	-4.156494140625E-07	0.281341552734375
89.819319773228	-4.3487548828125E-07	0.2803955078125
89.9169757729815	-4.388427734375E-07	0.2767333984375
90.0146317727349	-4.33349609375E-07	0.27374267578125
90.1122877724883	-4.473876953125E-07	0.27264404296875
90.2099437722418	-4.74853515625E-07	0.26953125
90.3075997719952	-4.89501953125E-07	0.268035888671875
90.4052557717487	-4.998779296875E-07	0.266143798828125
90.5029117715021	-5.2093505859375E-07	0.262359619140625
90.6005677712556	-5.3131103515625E-07	0.25921630859375
90.698223771009	-5.267333984375E-07	0.258636474609375
90.7958797707624	-5.517578125E-07	0.2545166015625
90.8935357705159	-5.657958984375E-07	0.2537841796875
90.9911917702693	-5.9112548828125E-07	0.250274658203125
91.0888477700228	-5.987548828125E-07	0.247283935546875
91.1865037697762	-6.18896484375E-07	0.246063232421875
91.2841597695297	-6.5277099609375E-07	0.242645263671875
91.3818157692831	-6.4605712890625E-07	0.23980712890625
91.4794717690365	-6.6436767578125E-07	0.2381591796875
91.57712776879	-6.8359375E-07	0.2349853515625
91.6747837685434	-7.1380615234375E-07	0.233428955078125
91.7724397682969	-7.36083984375E-07	0.230316162109375
91.8700957680503	-7.489013671875E-07	0.22882080078125
91.9677517678037	-7.867431640625E-07	0.2252197265625
92.0654077675572	-7.861328125E-07	0.2244873046875
92.1630637673106	-8.06884765625E-07	0.22216796875
92.2607197670641	-8.3404541015625E-07	0.21795654296875
92.3583757668175	-8.660888671875E-07	0.21685791015625
92.456031766571	-8.9599609375E-07	0.21490478515625
92.5536877663244	-9.0789794921875E-07	0.21075439453125
92.6513437660778	-9.552001953125E-07	0.2095947265625
92.7489997658313	-9.564208984375E-07	0.205810546875
92.8466557655847	-9.6832275390625E-07	0.203277587890625
92.9443117653382	-1.011962890625E-06	0.2012939453125
93.0419677650916	-1.0400390625E-06	0.19940185546875
93.1396237648451	-1.08001708984375E-06	0.1976318359375
93.2372797645985	-1.09344482421875E-06	0.1953125
93.3349357643519	-1.13494873046875E-06	0.192108154296875
93.4325917641054	-1.163330078125E-06	0.190521240234375
93.5302477638588	-1.1761474609375E-06	0.187347412109375
93.6279037636123	-1.217041015625E-06	0.184783935546875
93.7255597633657	-1.25091552734375E-06	0.18280029296875
93.8232157631192	-1.29791259765625E-06	0.1796875
93.9208717628726	-1.32049560546875E-06	0.17816162109375
94.018527762626	-1.34796142578125E-06	0.17535400390625
94.1161837623795	-1.4044189453125E-06	0.173675537109375
94.2138397621329	-1.41082763671875E-06	0.169952392578125
94.3114957618864	-1.45782470703125E-06	0.167266845703125
94.4091517616398	-1.4971923828125E-06	0.164703369140625
94.5068077613932	-1.544189453125E-06	0.163543701171875
94.6044637611467	-1.5875244140625E-06	0.16143798828125
94.7021197609001	-1.614990234375E-06	0.158721923828125
94.7997757606536	-1.68365478515625E-06	0.1556396484375
94.897431760407	-1.697998046875E-06	0.152862548828125
94.9950877601605	-1.7431640625E-06	0.1517333984375
95.0927437599139	-1.7950439453125E-06	0.149200439453125
95.1903997596673	-1.83502197265625E-06	0.14617919921875
95.2880557594208	-1.90338134765625E-06	0.1431884765625
95.3857117591742	-1.93145751953125E-06	0.140472412109375
95.4833677589277	-1.99981689453125E-06	0.13916015625
95.5810237586811	-2.03155517578125E-06	0.1353759765625
95.6786797584346	-2.06695556640625E-06	0.1326904296875
95.776335758188	-2.14630126953125E-06	0.13214111328125
95.8739917579414	-2.18505859375E-06	0.128326416015625
95.9716477576949	-2.25555419921875E-06	0.126800537109375
96.0693037574483	-2.2900390625E-06	0.124725341796875
96.1669597572018	-2.353515625E-06	0.121734619140625
96.2646157569552	-2.42462158203125E-06	0.1192626953125
96.3622717567087	-2.4468994140625E-06	0.1175537109375
96.4599277564621	-2.5347900390625E-06	0.1141357421875
96.5575837562155	-2.58636474609375E-06	0.1126708984375
96.655239755969	-2.6513671875E-06	0.110076904296875
96.7528957557224	-2.723388671875E-06	0.1075439453125
96.8505517554759	-2.7740478515625E-06	0.105499267578125
96.9482077552293	-2.86041259765625E-06	0.103302001953125
97.0458637549827	-2.8857421875E-06	0.09893798828125
97.1435197547362	-2.97821044921875E-06	0.098175048828125
97.2411757544896	-3.0474853515625E-06	0.095672607421875
97.3388317542431	-3.7445068359375E-06	0.091888427734375
97.4364877539965	-3.839111328125E-06	0.0904541015625
97.53414375375	-3.94287109375E-06	0.086883544921875
97.6317997535034	-4.046630859375E-06	0.084869384765625
97.7294557532568	-4.1473388671875E-06	0.0821533203125
97.8271117530103	-4.241943359375E-06	0.07952880859375
97.9247677527637	-4.3609619140625E-06	0.076263427734375
98.0224237525172	-4.4891357421875E-06	0.07391357421875
98.1200797522706	-4.595947265625E-06	0.071533203125
98.2177357520241	-4.718017578125E-06	0.069793701171875
98.3153917517775	-4.852294921875E-06	0.06695556640625
98.4130477515309	-4.962158203125E-06	0.066009521484375
98.5107037512844	-5.078125E-06	0.062774658203125
98.6083597510378	-5.2154541015625E-06	0.06036376953125
98.7060157507913	-5.35888671875E-06	0.057647705078125
98.8036717505447	-5.5023193359375E-06	0.05621337890625
98.9013277502982	-5.6488037109375E-06	0.052001953125
98.9989837500516	-5.7891845703125E-06	0.050140380859375
99.096639749805	-5.938720703125E-06	0.0473388671875
99.1942957495585	-6.0791015625E-06	0.0465911865234375
99.2919517493119	-6.231689453125E-06	0.0426361083984375
99.3896077490654	-6.402587890625E-06	0.0417755126953125
99.4872637488188	-6.5765380859375E-06	0.03917236328125
99.5849197485722	-6.73828125E-06	0.0350067138671875
99.6825757483257	-6.9000244140625E-06	0.034234619140625
99.7802317480791	-7.09228515625E-06	0.03121337890625
99.8778877478326	-7.257080078125E-06	0.0294342041015625
99.975543747586	-7.4371337890625E-06	0.0254058837890625
100.073199747339	-7.6385498046875E-06	0.0235870361328125
100.170855747093	-7.8521728515625E-06	0.0211090087890625
100.268511746846	-8.0535888671875E-06	0.018939208984375
100.3661677466	-8.245849609375E-06	0.0162567138671875
100.463823746353	-8.4716796875E-06	0.0146209716796875
100.561479746107	-8.6669921875E-06	0.0105865478515625
100.65913574586	-8.8775634765625E-06	0.0088623046875
100.756791745614	-9.11865234375E-06	0.00705566406249999
100.854447745367	-9.3536376953125E-06	0.003826904296875
100.95210374512	-9.5977783203125E-06	0.00129089355468751
101.049759744874	-9.8358154296875E-06	-0.001220703125
101.147415744627	-1.009521484375E-05	-0.002703857421875
101.245071744381	-1.03363037109375E-05	-0.00469360351562501
101.342727744134	-1.0589599609375E-05	-0.00884094238281249
101.440383743888	-1.08489990234375E-05	-0.00947265625
101.538039743641	-1.11419677734375E-05	-0.012567138671875
101.635695743395	-1.14349365234375E-05	-0.016107177734375
101.733351743148	-1.1724853515625E-05	-0.0170379638671875
101.831007742901	-1.20208740234375E-05	-0.01983642578125
101.928663742655	-1.2335205078125E-05	-0.0224578857421875
102.026319742408	-1.26251220703125E-05	-0.0253082275390625
102.123975742162	-1.29547119140625E-05	-0.0272857666015625
102.221631741915	-1.3299560546875E-05	-0.029107666015625
102.319287741669	-1.363525390625E-05	-0.0327911376953125
102.416943741422	-1.39739990234375E-05	-0.0352325439453125
102.514599741176	-1.4324951171875E-05	-0.0380767822265625
102.612255740929	-1.4715576171875E-05	-0.0404083251953125
102.709911740682	-1.50634765625E-05	-0.0410888671875
102.807567740436	-1.54449462890625E-05	-0.0450897216796875
102.905223740189	-1.58538818359375E-05	-0.0478271484375
103.002879739943	-1.6259765625E-05	-0.0490631103515625
103.100535739696	-1.6680908203125E-05	-0.05120849609375
103.19819173945	-1.71112060546875E-05	-0.053131103515625
103.295847739203	-1.75506591796875E-05	-0.05670166015625
103.393503738956	-1.79931640625E-05	-0.059783935546875
103.49115973871	-1.8438720703125E-05	-0.06072998046875
103.588815738463	-1.89208984375E-05	-0.064910888671875
103.686471738217	-1.94305419921875E-05	-0.065277099609375
103.78412773797	-1.9915771484375E-05	-0.068023681640625
103.881783737724	-2.0428466796875E-05	-0.0718994140625
103.979439737477	-2.095947265625E-05	-0.072601318359375
104.077095737231	-2.149658203125E-05	-0.07574462890625
104.174751736984	-2.2052001953125E-05	-0.078948974609375
104.272407736737	-2.261962890625E-05	-0.08099365234375
104.370063736491	-2.3223876953125E-05	-0.082305908203125
104.467719736244	-2.38189697265625E-05	-0.084930419921875
104.565375735998	-2.44537353515625E-05	-0.08709716796875
104.663031735751	-2.508544921875E-05	-0.08953857421875
104.760687735505	-2.57354736328125E-05	-0.091949462890625
104.858343735258	-2.63824462890625E-05	-0.0963134765625
104.955999735012	-2.70782470703125E-05	-0.096771240234375
105.053655734765	-2.77923583984375E-05	-0.0992431640625
105.151311734518	-2.85186767578125E-05	-0.10223388671875
105.248967734272	-2.92633056640625E-05	-0.10400390625
105.346623734025	-3.00201416015625E-05	-0.1070556640625
105.444279733779	-3.08074951171875E-05	-0.109893798828125
105.541935733532	-3.1585693359375E-05	-0.1126708984375
105.639591733286	-3.24066162109375E-05	-0.11492919921875
105.737247733039	-3.32794189453125E-05	-0.118316650390625
105.834903732793	-3.41400146484375E-05	-0.11993408203125
105.932559732546	-3.50189208984375E-05	-0.122100830078125
106.030215732299	-3.59161376953125E-05	-0.124755859375
106.127871732053	-3.6846923828125E-05	-0.126922607421875
106.225527731806	-3.7786865234375E-05	-0.12982177734375
106.32318373156	-3.87359619140625E-05	-0.1319580078125
106.420839731313	-3.97430419921875E-05	-0.13519287109375
106.518495731067	-4.07745361328125E-05	-0.1368408203125
106.61615173082	-4.18182373046875E-05	-0.13922119140625
106.713807730574	-4.2877197265625E-05	-0.14178466796875
106.811463730327	-4.3975830078125E-05	-0.14398193359375
106.90911973008	-4.510498046875E-05	-0.14642333984375
107.006775729834	-4.6234130859375E-05	-0.15008544921875
107.104431729587	-4.7393798828125E-05	-0.1514892578125
107.202087729341	-4.8614501953125E-05	-0.15509033203125
107.299743729094	-4.986572265625E-05	-0.15692138671875
107.397399728848	-5.1116943359375E-05	-0.15924072265625
107.495055728601	-5.2398681640625E-05	-0.161285400390625
107.592711728355	-5.3741455078125E-05	-0.16375732421875
107.690367728108	-5.5084228515625E-05	-0.16717529296875
107.788023727861	-5.6488037109375E-05	-0.16845703125
107.885679727615	-5.792236328125E-05	-0.17132568359375
107.983335727368	-5.9417724609375E-05	-0.1739501953125
108.080991727122	-6.09130859375E-05	-0.175872802734375
108.178647726875	-6.2469482421875E-05	-0.17840576171875
108.276303726629	-6.402587890625E-05	-0.18060302734375
108.373959726382	-6.561279296875E-05	-0.1842041015625
108.471615726135	-6.7230224609375E-05	-0.185760498046875
108.569271725889	-6.890869140625E-05	-0.189117431640625
108.666927725642	-7.0556640625E-05	-0.190399169921875
108.764583725396	-7.2265625E-05	-0.19287109375
108.862239725149	-7.3974609375E-05	-0.1964111328125
108.959895724903	-7.568359375E-05	-0.198089599609375
109.057551724656	-7.7423095703125E-05	-0.201446533203125
109.15520772441	-7.916259765625E-05	-0.20263671875
109.252863724163	-8.099365234375E-05	-0.206268310546875
109.350519723916	-8.2794189453125E-05	-0.207672119140625
109.44817572367	-8.4625244140625E-05	-0.2098388671875
109.545831723423	-8.648681640625E-05	-0.21368408203125
109.643487723177	-8.8348388671875E-05	-0.215606689453125
109.74114372293	-9.0240478515625E-05	-0.217864990234375
109.838799722684	-9.21630859375E-05	-0.219696044921875
109.936455722437	-9.41162109375E-05	-0.223114013671875
110.034111722191	-9.6099853515625E-05	-0.22515869140625
110.131767721944	-9.814453125E-05	-0.22735595703125
110.229423721697	-0.000100189208984375	-0.23065185546875
110.327079721451	-0.000102294921875	-0.23284912109375
110.424735721204	-0.00010443115234375	-0.23504638671875
110.522391720958	-0.000106536865234375	-0.23779296875
110.620047720711	-0.000108734130859375	-0.24017333984375
110.717703720465	-0.00011102294921875	-0.24139404296875
110.815359720218	-0.000113311767578125	-0.244903564453125
110.913015719972	-0.00011566162109375	-0.24761962890625
111.010671719725	-0.0001180419921875	-0.25
111.108327719478	-0.0001204833984375	-0.252593994140625
111.205983719232	-0.000122955322265625	-0.2548828125
111.303639718985	-0.000125518798828125	-0.25738525390625
111.401295718739	-0.000128173828125	-0.258636474609375
111.498951718492	-0.000130828857421875	-0.26226806640625
111.596607718246	-0.000133575439453125	-0.26470947265625
111.694263717999	-0.0001363525390625	-0.26678466796875
111.791919717753	-0.000139251708984375	-0.26922607421875
111.889575717506	-0.000142120361328125	-0.27178955078125
111.987231717259	-0.000145050048828125	-0.27435302734375
112.084887717013	-0.00014813232421875	-0.27569580078125
112.182543716766	-0.000151275634765625	-0.277923583984375
112.28019971652	-0.00015447998046875	-0.281494140625
112.377855716273	-0.000157806396484375	-0.283355712890625
112.475511716027	-0.000161224365234375	-0.285308837890625
112.57316771578	-0.000164764404296875	-0.287750244140625
112.670823715534	-0.000168365478515625	-0.291534423828125
112.768479715287	-0.000172149658203125	-0.29290771484375
112.86613571504	-0.000176055908203125	-0.295013427734375
112.963791714794	-0.000180023193359375	-0.297454833984375
113.061447714547	-0.00018414306640625	-0.30108642578125
113.159103714301	-0.00018841552734375	-0.303375244140625
113.256759714054	-0.00019281005859375	-0.305450439453125
113.354415713808	-0.00019732666015625	-0.30841064453125
113.452071713561	-0.000201995849609375	-0.310821533203125
113.549727713314	-0.0002069091796875	-0.3126220703125
113.647383713068	-0.0002119140625	-0.315765380859375
113.745039712821	-0.000217071533203125	-0.318084716796875
113.842695712575	-0.00022235107421875	-0.31939697265625
113.940351712328	-0.00022784423828125	-0.322052001953125
114.038007712082	-0.000233489990234375	-0.324310302734375
114.135663711835	-0.00023931884765625	-0.327239990234375
114.233319711589	-0.000245361328125	-0.329315185546875
114.330975711342	-0.000251617431640625	-0.332122802734375
114.428631711095	-0.00025799560546875	-0.33392333984375
114.526287710849	-0.000264617919921875	-0.336944580078125
114.623943710602	-0.00027142333984375	-0.3394775390625
114.721599710356	-0.000278411865234375	-0.341278076171875
114.819255710109	-0.000285614013671875	-0.343597412109375
114.916911709863	-0.000293060302734375	-0.34735107421875
115.014567709616	-0.000300689697265625	-0.348297119140625
115.11222370937	-0.00030853271484375	-0.35235595703125
115.209879709123	-0.00031658935546875	-0.35400390625
115.307535708876	-0.0003248291015625	-0.357208251953125
115.40519170863	-0.000333282470703125	-0.35968017578125
115.502847708383	-0.0003419189453125	-0.36114501953125
115.600503708137	-0.000350830078125	-0.363616943359375
115.69815970789	-0.000359954833984375	-0.367431640625
115.795815707644	-0.0003692626953125	-0.36859130859375
115.893471707397	-0.00037884521484375	-0.3721923828125
115.991127707151	-0.00038861083984375	-0.37469482421875
116.088783706904	-0.0003985595703125	-0.377044677734375
116.186439706657	-0.0004088134765625	-0.379241943359375
116.284095706411	-0.000419403076171875	-0.381683349609375
116.381751706164	-0.000430267333984375	-0.383544921875
116.479407705918	-0.00044140625	-0.38690185546875
116.577063705671	-0.000452850341796875	-0.388153076171875
116.674719705425	-0.0004647216796875	-0.391265869140625
116.772375705178	-0.0004769287109375	-0.393310546875
116.870031704932	-0.000489501953125	-0.396453857421875
116.967687704685	-0.00050262451171875	-0.39898681640625
117.065343704438	-0.000516357421875	-0.401458740234375
117.162999704192	-0.00053070068359375	-0.40252685546875
117.260655703945	-0.00054534912109375	-0.405914306640625
117.358311703699	-0.000560302734375	-0.40850830078125
117.455967703452	-0.00057647705078125	-0.40997314453125
117.553623703206	-0.00059326171875	-0.41253662109375
117.651279702959	-0.00061065673828125	-0.415008544921875
117.748935702713	-0.00062896728515625	-0.418548583984375
117.846591702466	-0.000648193359375	-0.42108154296875
117.944247702219	-0.0006683349609375	-0.423309326171875
118.041903701973	-0.00068939208984375	-0.424896240234375
118.139559701726	-0.00071136474609375	-0.427276611328125
118.23721570148	-0.0007342529296875	-0.429534912109375
118.334871701233	-0.00075836181640625	-0.43231201171875
118.432527700987	-0.00078369140625	-0.4354248046875
118.53018370074	-0.0008099365234375	-0.43804931640625
118.627839700493	-0.00083740234375	-0.43994140625
118.725495700247	-0.00086578369140625	-0.44171142578125
118.8231517	-0.00089569091796875	-0.445465087890625
118.920807699754	-0.000926513671875	-0.447052001953125
119.018463699507	-0.00095855712890625	-0.449737548828125
119.116119699261	-0.0009918212890625	-0.451568603515625
119.213775699014	-0.00102630615234375	-0.45428466796875
119.311431698768	-0.00106170654296875	-0.456268310546875
119.409087698521	-0.0010986328125	-0.459930419921875
119.506743698274	-0.001136474609375	-0.461517333984375
119.604399698028	-0.0011749267578125	-0.464691162109375
119.702055697781	-0.00121490478515625	-0.466156005859375
119.799711697535	-0.0012554931640625	-0.468353271484375
119.897367697288	-0.0012969970703125	-0.471038818359375
119.995023697042	-0.00133941650390625	-0.473114013671875
120.092679696795	-0.00138214111328125	-0.476776123046875
120.190335696549	-0.00142578125	-0.4781494140625
120.287991696302	-0.0014697265625	-0.48162841796875
120.385647696055	-0.00151397705078125	-0.48358154296875
120.483303695809	-0.001558837890625	-0.486236572265625
120.580959695562	-0.00160369873046875	-0.4881591796875
120.678615695316	-0.0016485595703125	-0.49169921875
120.776271695069	-0.00169342041015625	-0.492706298828125
120.873927694823	-0.00173828125	-0.496307373046875
120.971583694576	-0.00178314208984375	-0.497833251953125
121.06923969433	-0.0018280029296875	-0.50128173828125
121.166895694083	-0.00187255859375	-0.5025634765625
121.264551693836	-0.0019171142578125	-0.505828857421875
121.36220769359	-0.0019610595703125	-0.508148193359375
121.459863693343	-0.00200531005859375	-0.510650634765625
121.557519693097	-0.0020489501953125	-0.51239013671875
121.65517569285	-0.00209259033203125	-0.514495849609375
121.752831692604	-0.00213623046875	-0.51763916015625
121.850487692357	-0.0021795654296875	-0.519622802734375
121.948143692111	-0.002222900390625	-0.523101806640625
122.045799691864	-0.0022662353515625	-0.525543212890625
122.143455691617	-0.00230926513671875	-0.52703857421875
122.241111691371	-0.00235260009765625	-0.529205322265625
122.338767691124	-0.0023956298828125	-0.532958984375
122.436423690878	-0.00243865966796875	-0.53436279296875
122.534079690631	-0.0024822998046875	-0.537689208984375
122.631735690385	-0.002525634765625	-0.539794921875
122.729391690138	-0.00256927490234375	-0.54217529296875
122.827047689892	-0.0026129150390625	-0.544219970703125
122.924703689645	-0.0026568603515625	-0.5469970703125
123.022359689398	-0.00270050048828125	-0.5489501953125
123.120015689152	-0.002744140625	-0.5523681640625
123.217671688905	-0.00278778076171875	-0.553497314453125
123.315327688659	-0.00283111572265625	-0.55645751953125
123.412983688412	-0.00287445068359375	-0.558349609375
123.510639688166	-0.00291717529296875	-0.561737060546875
123.608295687919	-0.00295989990234375	-0.56427001953125
123.705951687672	-0.0030023193359375	-0.56689453125
123.803607687426	-0.00304412841796875	-0.568084716796875
123.901263687179	-0.00308563232421875	-0.57110595703125
123.998919686933	-0.00312652587890625	-0.57427978515625
124.096575686686	-0.0031671142578125	-0.575897216796875
124.19423168644	-0.003206787109375	-0.577880859375
124.291887686193	-0.0032464599609375	-0.58062744140625
124.389543685947	-0.0032855224609375	-0.583465576171875
124.4871996857	-0.003323974609375	-0.58551025390625
124.584855685453	-0.00336212158203125	-0.588653564453125
124.682511685207	-0.003399658203125	-0.590057373046875
124.78016768496	-0.0034368896484375	-0.593505859375
124.877823684714	-0.0034735107421875	-0.595489501953125
124.975479684467	-0.00350982666015625	-0.597564697265625
125.073135684221	-0.00354522705078125	-0.59967041015625
125.170791683974	-0.003580322265625	-0.60198974609375
125.268447683728	-0.0036151123046875	-0.6046142578125
125.366103683481	-0.00364898681640625	-0.60784912109375
125.463759683234	-0.0036822509765625	-0.6099853515625
125.561415682988	-0.0037152099609375	-0.61260986328125
125.659071682741	-0.00374755859375	-0.6141357421875
125.756727682495	-0.00377899169921875	-0.617584228515625
125.854383682248	-0.003809814453125	-0.620269775390625
125.952039682002	-0.00384033203125	-0.622406005859375
126.049695681755	-0.00386993408203125	-0.6240234375
126.147351681509	-0.00389892578125	-0.626495361328125
126.245007681262	-0.00392730712890625	-0.629241943359375
126.342663681015	-0.003955078125	-0.63177490234375
126.440319680769	-0.00398223876953125	-0.634185791015625
126.537975680522	-0.0040081787109375	-0.635955810546875
126.635631680276	-0.00403411865234375	-0.639892578125
126.733287680029	-0.00405914306640625	-0.64208984375
126.830943679783	-0.004083251953125	-0.644561767578125
126.928599679536	-0.0041070556640625	-0.646331787109375
127.02625567929	-0.0041302490234375	-0.6490478515625
127.123911679043	-0.00415283203125	-0.650360107421875
127.221567678796	-0.0041748046875	-0.65386962890625
127.31922367855	-0.0041961669921875	-0.655548095703125
127.416879678303	-0.0042169189453125	-0.658721923828125
127.514535678057	-0.004237060546875	-0.6605224609375
127.61219167781	-0.004256591796875	-0.663848876953125
127.709847677564	-0.00427581787109375	-0.665985107421875
127.807503677317	-0.00429473876953125	-0.667724609375
127.905159677071	-0.004312744140625	-0.670562744140625
128.002815676824	-0.0043304443359375	-0.673248291015625
128.100471676577	-0.00434814453125	-0.67596435546875
128.198127676331	-0.004365234375	-0.677490234375
128.295783676084	-0.0043817138671875	-0.6795654296875
128.393439675838	-0.004398193359375	-0.683135986328125
128.491095675591	-0.0044140625	-0.685455322265625
128.588751675345	-0.004429931640625	-0.6873779296875
128.686407675098	-0.0044451904296875	-0.689971923828125
128.784063674851	-0.00446044921875	-0.691925048828125
128.881719674605	-0.00447540283203125	-0.694427490234375
128.979375674358	-0.00449005126953125	-0.6968994140625
129.077031674112	-0.00450469970703125	-0.700469970703125
129.174687673865	-0.00451873779296875	-0.701690673828125
129.272343673619	-0.00453277587890625	-0.704193115234375
129.369999673372	-0.00454681396484375	-0.7066650390625
129.467655673126	-0.004560546875	-0.71014404296875
129.565311672879	-0.00457427978515625	-0.711517333984375
129.662967672632	-0.00458740234375	-0.714111328125
129.760623672386	-0.004600830078125	-0.71746826171875
129.858279672139	-0.00461395263671875	-0.7188720703125
129.955935671893	-0.0046270751953125	-0.72161865234375
130.053591671646	-0.004639892578125	-0.724700927734375
130.1512476714	-0.0046527099609375	-0.726226806640625
130.248903671153	-0.00466552734375	-0.729339599609375
130.346559670907	-0.00467803955078125	-0.732147216796875
130.44421567066	-0.0046905517578125	-0.7342529296875
130.541871670413	-0.00470306396484375	-0.736968994140625
130.639527670167	-0.00471527099609375	-0.738311767578125
130.73718366992	-0.00472747802734375	-0.741729736328125
130.834839669674	-0.00473968505859375	-0.7442626953125
130.932495669427	-0.00475189208984375	-0.7457275390625
131.030151669181	-0.00476409912109375	-0.749176025390625
131.127807668934	-0.00477569580078125	-0.75164794921875
131.225463668688	-0.00478759765625	-0.75531005859375
131.323119668441	-0.0047991943359375	-0.75775146484375
131.420775668194	-0.004810791015625	-0.76019287109375
131.518431667948	-0.00482208251953125	-0.76202392578125
131.616087667701	-0.0048333740234375	-0.7647705078125
131.713743667455	-0.0048443603515625	-0.76751708984375
131.811399667208	-0.0048553466796875	-0.76873779296875
131.909055666962	-0.0048663330078125	-0.77178955078125
132.006711666715	-0.00487701416015625	-0.77484130859375
132.104367666469	-0.0048876953125	-0.77606201171875
132.202023666222	-0.00489837646484375	-0.77880859375
132.299679665975	-0.004908447265625	-0.78216552734375
132.397335665729	-0.0049188232421875	-0.78338623046875
132.494991665482	-0.0049285888671875	-0.7867431640625
132.592647665236	-0.00493865966796875	-0.78826904296875
132.690303664989	-0.00494842529296875	-0.79071044921875
132.787959664743	-0.0049578857421875	-0.79376220703125
132.885615664496	-0.00496734619140625	-0.797119140625
132.98327166425	-0.004976806640625	-0.79833984375
133.080927664003	-0.0049859619140625	-0.802001953125
133.178583663756	-0.0049951171875	-0.80474853515625
133.27623966351	-0.00500396728515625	-0.8050537109375
133.373895663263	-0.00501251220703125	-0.8087158203125
133.471551663017	-0.0050213623046875	-0.81207275390625
133.56920766277	-0.00502960205078125	-0.81298828125
133.666863662524	-0.00503814697265625	-0.81634521484375
133.764519662277	-0.00504608154296875	-0.81695556640625
133.86217566203	-0.0050543212890625	-0.82000732421875
133.959831661784	-0.00506195068359375	-0.8221435546875
134.057487661537	-0.005069580078125	-0.8251953125
134.155143661291	-0.00507720947265625	-0.8270263671875
134.252799661044	-0.00508453369140625	-0.83038330078125
134.350455660798	-0.00509185791015625	-0.83282470703125
134.448111660551	-0.005098876953125	-0.83648681640625
134.545767660305	-0.00510589599609375	-0.83892822265625
134.643423660058	-0.00511260986328125	-0.841064453125
134.741079659811	-0.00511932373046875	-0.84320068359375
134.838735659565	-0.005125732421875	-0.84564208984375
134.936391659318	-0.00513214111328125	-0.84686279296875
135.034047659072	-0.00513824462890625	-0.8502197265625
135.131703658825	-0.00514434814453125	-0.85296630859375
135.229359658579	-0.00515045166015625	-0.85479736328125
135.327015658332	-0.00515625	-0.8563232421875
135.424671658086	-0.0051617431640625	-0.86090087890625
135.522327657839	-0.005167236328125	-0.86181640625
135.619983657592	-0.00517242431640625	-0.8642578125
135.717639657346	-0.00517791748046875	-0.8660888671875
135.815295657099	-0.00518280029296875	-0.869140625
135.912951656853	-0.00518768310546875	-0.87158203125
136.010607656606	-0.00519256591796875	-0.875244140625
136.10826365636	-0.00519744873046875	-0.87646484375
136.205919656113	-0.0052020263671875	-0.87890625
136.303575655867	-0.005206298828125	-0.882568359375
136.40123165562	-0.0052105712890625	-0.8831787109375
136.498887655373	-0.00521484375	-0.8868408203125
136.596543655127	-0.00521881103515625	-0.88897705078125
136.69419965488	-0.0052227783203125	-0.89202880859375
136.791855654634	-0.0052264404296875	-0.89324951171875
136.889511654387	-0.0052301025390625	-0.89630126953125
136.987167654141	-0.00523345947265625	-0.89935302734375
137.084823653894	-0.00523681640625	-0.90240478515625
137.182479653648	-0.0052398681640625	-0.904541015625
137.280135653401	-0.005242919921875	-0.9063720703125
137.377791653154	-0.0052459716796875	-0.908203125
137.475447652908	-0.00524871826171875	-0.911865234375
137.573103652661	-0.00525146484375	-0.91461181640625
137.670759652415	-0.00525421142578125	-0.9161376953125
137.768415652168	-0.00525665283203125	-0.9185791015625
137.866071651922	-0.00525909423828125	-0.9197998046875
137.963727651675	-0.00526123046875	-0.92376708984375
138.061383651429	-0.0052630615234375	-0.92559814453125
138.159039651182	-0.00526519775390625	-0.92742919921875
138.256695650935	-0.00526702880859375	-0.9307861328125
138.354351650689	-0.0052685546875	-0.9326171875
138.452007650442	-0.0052703857421875	-0.93505859375
138.549663650196	-0.00527191162109375	-0.93841552734375
138.647319649949	-0.00527313232421875	-0.9393310546875
138.744975649703	-0.0052740478515625	-0.943603515625
138.842631649456	-0.0052752685546875	-0.9454345703125
138.940287649209	-0.00527587890625	-0.94757080078125
139.037943648963	-0.0052764892578125	-0.950927734375
139.135599648716	-0.005277099609375	-0.95245361328125
139.23325564847	-0.0052777099609375	-0.95489501953125
139.330911648223	-0.00527801513671875	-0.9576416015625
139.428567647977	-0.00527801513671875	-0.95947265625
139.52622364773	-0.00527801513671875	-0.96282958984375
139.623879647484	-0.00527801513671875	-0.96435546875
139.721535647237	-0.0052777099609375	-0.966796875
139.81919164699	-0.005277099609375	-0.97015380859375
139.916847646744	-0.0052764892578125	-0.9710693359375
140.014503646497	-0.00527587890625	-0.9747314453125
140.112159646251	-0.005274658203125	-0.97808837890625
140.209815646004	-0.00527374267578125	-0.97930908203125
140.307471645758	-0.005272216796875	-0.9832763671875
140.405127645511	-0.00527099609375	-0.98388671875
140.502783645265	-0.00526947021484375	-0.98602294921875
140.600439645018	-0.0052679443359375	-0.98968505859375
140.698095644771	-0.00526611328125	-0.99090576171875
140.795751644525	-0.0052642822265625	-0.9930419921875
140.893407644278	-0.00526214599609375	-0.99609375
140.991063644032	-0.00526031494140625	-0.99884033203125
141.088719643785	-0.0052581787109375	-1.00067138671875
