Time (s)	WE(1).Current (A)	WE(1).Potential (V)
60.8299698464191	2.4383544921875E-07	0.99578857421875
60.8543838463575	1.8707275390625E-07	0.99456787109375
60.8787978462958	2.0172119140625E-07	0.99212646484375
60.9032118462342	1.2969970703125E-07	0.98907470703125
60.9276258461725	1.3427734375E-07	0.98602294921875
60.9520398461109	1.116943359375E-07	0.98480224609375
60.9764538460493	1.361083984375E-07	0.98358154296875
61.0008678459876	8.331298828125E-08	0.97900390625
61.025281845926	9.552001953125E-08	0.9765625
61.0496958458643	7.965087890625E-08	0.97412109375
61.0741098458027	6.7138671875E-08	0.9722900390625
61.0985238457411	7.8125E-08	0.9716796875
61.1229378456794	3.7139892578125E-08	0.96893310546875
61.1473518456178	6.9610595703125E-08	0.96588134765625
61.1717658455561	-2.8076171875E-09	0.9619140625
61.1961798454945	4.78515625E-08	0.95947265625
61.2205938454329	-4.7607421875E-09	0.9576416015625
61.2450078453712	2.6123046875E-08	0.95550537109375
61.2694218453096	-1.7669677734375E-08	0.95184326171875
61.2938358452479	5.79833984375E-10	0.95062255859375
61.3182498451863	-2.3590087890625E-08	0.94879150390625
61.3426638451247	-1.47705078125E-08	0.94635009765625
61.367077845063	-1.9775390625E-08	0.94329833984375
61.3914918450014	-1.947021484375E-08	0.93994140625
61.4159058449397	-1.251220703125E-09	0.93902587890625
61.4403198448781	-2.8656005859375E-08	0.93719482421875
61.4647338448165	7.01904296875E-10	0.93475341796875
61.4891478447548	-3.4881591796875E-08	0.9326171875
61.5135618446932	-4.425048828125E-09	0.92864990234375
61.5379758446315	-5.6976318359375E-08	0.92559814453125
61.5623898445699	-2.9541015625E-08	0.9234619140625
61.5868038445083	-7.2540283203125E-08	0.92071533203125
61.6112178444466	-4.888916015625E-08	0.919189453125
61.635631844385	-7.55615234375E-08	0.9173583984375
61.6600458443233	-6.121826171875E-08	0.91522216796875
61.6844598442617	-6.9580078125E-08	0.91156005859375
61.7088738442001	-7.513427734375E-08	0.908203125
61.7332878441384	-6.3720703125E-08	0.9075927734375
61.7577018440768	-7.7484130859375E-08	0.9051513671875
61.7821158440152	-5.9417724609375E-08	0.90240478515625
61.8065298439535	-8.612060546875E-08	0.899658203125
61.8309438438919	-4.5806884765625E-08	0.89752197265625
61.8553578438302	-7.6629638671875E-08	0.8941650390625
61.8797718437686	-4.888916015625E-08	0.89141845703125
61.904185843707	-9.6160888671875E-08	0.888671875
61.9285998436453	-7.1807861328125E-08	0.8880615234375
61.9530138435837	-1.14837646484375E-07	0.88592529296875
61.977427843522	-7.574462890625E-08	0.8831787109375
62.0018418434604	-1.17919921875E-07	0.8795166015625
62.0262558433988	-9.637451171875E-08	0.87677001953125
62.0506698433371	-1.0260009765625E-07	0.87371826171875
62.0750838432755	-9.8114013671875E-08	0.87371826171875
62.0994978432138	-1.0296630859375E-07	0.8709716796875
62.1239118431522	-1.14288330078125E-07	0.869140625
62.1483258430906	-8.319091796875E-08	0.86517333984375
62.1727398430289	-1.15386962890625E-07	0.86212158203125
62.1971538429673	-7.3822021484375E-08	0.859375
62.2215678429056	-1.06231689453125E-07	0.85662841796875
62.245981842844	-7.9559326171875E-08	0.8551025390625
62.2703958427824	-1.260986328125E-07	0.853271484375
62.2948098427207	-8.7249755859375E-08	0.8514404296875
62.3192238426591	-1.446533203125E-07	0.84930419921875
62.3436378425974	-1.15386962890625E-07	0.84503173828125
62.3680518425358	-1.2396240234375E-07	0.843505859375
62.3924658424742	-1.2078857421875E-07	0.841064453125
62.4168798424125	-1.1248779296875E-07	0.8392333984375
62.4412938423509	-1.2615966796875E-07	0.83740234375
62.4657078422892	-1.015625E-07	0.83465576171875
62.4901218422276	-1.32049560546875E-07	0.83038330078125
62.514535842166	-1.00067138671875E-07	0.82977294921875
62.5389498421043	-1.30035400390625E-07	0.82550048828125
62.5633638420427	-9.11865234375E-08	0.82305908203125
62.5877778419811	-1.18255615234375E-07	0.82122802734375
62.6121918419194	-8.3526611328125E-08	0.8197021484375
62.6366058418578	-1.3458251953125E-07	0.81512451171875
62.6610198417961	-1.3153076171875E-07	0.81512451171875
62.6854338417345	-1.429443359375E-07	0.81146240234375
62.7098478416729	-1.24359130859375E-07	0.8087158203125
62.7342618416112	-1.4617919921875E-07	0.80810546875
62.7586758415496	-1.32476806640625E-07	0.80535888671875
62.7830898414879	-1.49627685546875E-07	0.80291748046875
62.8075038414263	-1.58447265625E-07	0.80047607421875
62.8319178413647	-1.324462890625E-07	0.79864501953125
62.856331841303	-1.48162841796875E-07	0.79437255859375
62.8807458412414	-1.13861083984375E-07	0.79193115234375
62.9051598411797	-1.39434814453125E-07	0.78857421875
62.9295738411181	-1.12548828125E-07	0.7867431640625
62.9539878410565	-1.5252685546875E-07	0.78582763671875
62.9784018409948	-1.21917724609375E-07	0.78094482421875
63.0028158409332	-1.78314208984375E-07	0.780029296875
63.0272298408715	-1.3995361328125E-07	0.7769775390625
63.0516438408099	-1.666259765625E-07	0.77484130859375
63.0760578407483	-1.38427734375E-07	0.77362060546875
63.1004718406866	-1.561279296875E-07	0.77056884765625
63.124885840625	-1.5582275390625E-07	0.76690673828125
63.1492998405633	-1.5631103515625E-07	0.76629638671875
63.1737138405017	-1.56707763671875E-07	0.7635498046875
63.1981278404401	-1.324462890625E-07	0.76019287109375
63.2225418403784	-1.57867431640625E-07	0.7568359375
63.2469558403168	-9.9517822265625E-08	0.75408935546875
63.2713698402551	-1.54144287109375E-07	0.753173828125
63.2957838401935	-1.22650146484375E-07	0.75164794921875
63.3201978401319	-1.78619384765625E-07	0.747528076171875
63.3446118400702	-1.363525390625E-07	0.745513916015625
63.3690258400086	-1.77337646484375E-07	0.742767333984375
63.393439839947	-1.46331787109375E-07	0.740814208984375
63.4178538398853	-1.69952392578125E-07	0.7388916015625
63.4422678398237	-1.63848876953125E-07	0.73712158203125
63.466681839762	-1.6558837890625E-07	0.73248291015625
63.4910958397004	-1.76177978515625E-07	0.730712890625
63.5155098396388	-1.69586181640625E-07	0.728668212890625
63.5399238395771	-1.72393798828125E-07	0.727386474609375
63.5643378395155	-1.4678955078125E-07	0.7242431640625
63.5887518394538	-1.65252685546875E-07	0.7210693359375
63.6131658393922	-1.23291015625E-07	0.7188720703125
63.6375798393306	-1.76422119140625E-07	0.7174072265625
63.6619938392689	-1.456298828125E-07	0.7135009765625
63.6864078392073	-1.988525390625E-07	0.7110595703125
63.7108218391456	-1.53289794921875E-07	0.7086181640625
63.735235839084	-2.0208740234375E-07	0.707427978515625
63.7596498390224	-1.67572021484375E-07	0.704833984375
63.7840638389607	-1.94061279296875E-07	0.702545166015625
63.8084778388991	-1.90643310546875E-07	0.69891357421875
63.8328918388374	-1.77398681640625E-07	0.69659423828125
63.8573058387758	-1.81243896484375E-07	0.69482421875
63.8817198387142	-1.62261962890625E-07	0.693145751953125
63.9061338386525	-1.97265625E-07	0.690216064453125
63.9305478385909	-1.48468017578125E-07	0.68701171875
63.9549618385292	-1.7083740234375E-07	0.68438720703125
63.9793758384676	-1.46820068359375E-07	0.68182373046875
64.003789838406	-1.8048095703125E-07	0.679412841796875
64.0282038383443	-1.54693603515625E-07	0.6768798828125
64.0526178382827	-2.113037109375E-07	0.674957275390625
64.077031838221	-1.612548828125E-07	0.6737060546875
64.1014458381594	-2.1044921875E-07	0.67041015625
64.1258598380978	-2.0062255859375E-07	0.668243408203125
64.1502738380361	-2.1307373046875E-07	0.664215087890625
64.1746878379745	-1.91986083984375E-07	0.662933349609375
64.1991018379128	-1.8951416015625E-07	0.6610107421875
64.2235158378512	-2.0159912109375E-07	0.658935546875
64.2479298377896	-1.805419921875E-07	0.656005859375
64.2723438377279	-2.05474853515625E-07	0.6529541015625
64.2967578376663	-1.69097900390625E-07	0.64971923828125
64.3211718376047	-1.98944091796875E-07	0.647674560546875
64.345585837543	-1.6094970703125E-07	0.6451416015625
64.3699998374814	-2.13836669921875E-07	0.643310546875
64.3944138374197	-1.6949462890625E-07	0.641754150390625
64.4188278373581	-2.220458984375E-07	0.639190673828125
64.4432418372965	-2.02850341796875E-07	0.636962890625
64.4676558372348	-2.274169921875E-07	0.63311767578125
64.4920698371732	-2.02667236328125E-07	0.630645751953125
64.5164838371115	-2.12921142578125E-07	0.629669189453125
64.5408978370499	-2.1429443359375E-07	0.62689208984375
64.5653118369883	-1.97479248046875E-07	0.6246337890625
64.5897258369266	-2.15728759765625E-07	0.622344970703125
64.614139836865	-1.87744140625E-07	0.618682861328125
64.6385538368033	-2.24761962890625E-07	0.616851806640625
64.6629678367417	-1.72821044921875E-07	0.613189697265625
64.6873818366801	-2.061767578125E-07	0.611053466796875
64.7117958366184	-1.8084716796875E-07	0.609222412109375
64.7362098365568	-2.4237060546875E-07	0.6077880859375
64.7606238364951	-1.95648193359375E-07	0.60382080078125
64.7850378364335	-2.55523681640625E-07	0.6026611328125
64.8094518363719	-2.12432861328125E-07	0.5997314453125
64.8338658363102	-2.3236083984375E-07	0.597320556640625
64.8582798362486	-2.09320068359375E-07	0.595855712890625
64.8826938361869	-2.22076416015625E-07	0.592559814453125
64.9071078361253	-2.1746826171875E-07	0.590057373046875
64.9315218360637	-2.28424072265625E-07	0.587158203125
64.955935836002	-2.36236572265625E-07	0.5855712890625
64.9803498359404	-2.06695556640625E-07	0.582061767578125
65.0047638358787	-2.1246337890625E-07	0.579345703125
65.0291778358171	-1.88873291015625E-07	0.578033447265625
65.0535918357555	-2.2943115234375E-07	0.576202392578125
65.0780058356938	-1.97418212890625E-07	0.5731201171875
65.1024198356322	-2.8021240234375E-07	0.5706787109375
65.1268338355706	-2.318115234375E-07	0.568634033203125
65.1512478355089	-2.58941650390625E-07	0.56622314453125
65.1756618354473	-2.432861328125E-07	0.563568115234375
65.2000758353856	-2.33734130859375E-07	0.56036376953125
65.224489835324	-2.39532470703125E-07	0.557525634765625
65.2489038352624	-2.4005126953125E-07	0.556182861328125
65.2733178352007	-2.5531005859375E-07	0.55279541015625
65.2977318351391	-2.3284912109375E-07	0.55023193359375
65.3221458350774	-2.54913330078125E-07	0.54815673828125
65.3465598350158	-2.1697998046875E-07	0.546142578125
65.3709738349542	-2.476806640625E-07	0.5440673828125
65.3953878348925	-2.12066650390625E-07	0.5411376953125
65.4198018348309	-2.76336669921875E-07	0.5379638671875
65.4442158347692	-2.25494384765625E-07	0.53656005859375
65.4686298347076	-2.9425048828125E-07	0.534454345703125
65.493043834646	-2.44598388671875E-07	0.531585693359375
65.5174578345843	-2.72216796875E-07	0.528289794921875
65.5418718345227	-2.56866455078125E-07	0.52545166015625
65.566285834461	-2.706298828125E-07	0.52301025390625
65.5906998343994	-2.59765625E-07	0.5224609375
65.6151138343378	-2.5885009765625E-07	0.51910400390625
65.6395278342761	-2.80975341796875E-07	0.515716552734375
65.6639418342145	-2.469482421875E-07	0.51422119140625
65.6883558341528	-2.76397705078125E-07	0.51220703125
65.7127698340912	-2.40234375E-07	0.51019287109375
65.7371838340296	-2.86224365234375E-07	0.5079345703125
65.7615978339679	-2.47222900390625E-07	0.50390625
65.7860118339063	-3.057861328125E-07	0.50286865234375
65.8104258338446	-2.9083251953125E-07	0.499481201171875
65.834839833783	-3.47900390625E-07	0.496368408203125
65.8592538337214	-3.1158447265625E-07	0.4935302734375
65.8836678336597	-3.0548095703125E-07	0.491302490234375
65.9080818335981	-3.4210205078125E-07	0.488616943359375
65.9324958335364	-3.6376953125E-07	0.487213134765625
65.9569098334748	-3.253173828125E-07	0.484619140625
65.9813238334132	-3.28369140625E-07	0.481048583984375
66.0057378333515	-3.38134765625E-07	0.47979736328125
66.0301518332899	-2.8839111328125E-07	0.478057861328125
66.0545658332283	-3.2958984375E-07	0.4757080078125
66.0789798331666	-2.972412109375E-07	0.4735107421875
66.103393833105	-3.22265625E-07	0.470703125
66.1278078330433	-2.9998779296875E-07	0.46783447265625
66.1522218329817	-3.692626953125E-07	0.465423583984375
66.1766358329201	-3.204345703125E-07	0.46173095703125
66.2010498328584	-3.924560546875E-07	0.4599609375
66.2254638327968	-3.564453125E-07	0.457061767578125
66.2498778327351	-4.132080078125E-07	0.455078125
66.2742918326735	-3.564453125E-07	0.453094482421875
66.2987058326119	-3.753662109375E-07	0.449493408203125
66.3231198325502	-3.6956787109375E-07	0.44732666015625
66.3475338324886	-3.6529541015625E-07	0.446197509765625
66.3719478324269	-4.01611328125E-07	0.44403076171875
66.3963618323653	-3.546142578125E-07	0.44000244140625
66.4207758323037	-4.18701171875E-07	0.438568115234375
66.445189832242	-3.607177734375E-07	0.435882568359375
66.4696038321804	-4.2755126953125E-07	0.43341064453125
66.4940178321187	-3.7689208984375E-07	0.43023681640625
66.5184318320571	-4.4342041015625E-07	0.42803955078125
66.5428458319955	-3.9398193359375E-07	0.426605224609375
66.5672598319338	-4.730224609375E-07	0.42254638671875
66.5916738318722	-4.50439453125E-07	0.421112060546875
66.6160878318105	-4.4891357421875E-07	0.417755126953125
66.6405018317489	-4.4525146484375E-07	0.41595458984375
66.6649158316873	-4.217529296875E-07	0.414276123046875
66.6893298316256	-4.45556640625E-07	0.412200927734375
66.713743831564	-4.2816162109375E-07	0.408721923828125
66.7381578315023	-5.1055908203125E-07	0.40594482421875
66.7625718314407	-4.229736328125E-07	0.404693603515625
66.7869858313791	-4.7027587890625E-07	0.4014892578125
66.8113998313174	-4.2938232421875E-07	0.39874267578125
66.8358138312558	-5.0567626953125E-07	0.396087646484375
66.8602278311942	-4.67529296875E-07	0.3946533203125
66.8846418311325	-5.5419921875E-07	0.392730712890625
66.9090558310709	-5.1055908203125E-07	0.388427734375
66.9334698310092	-5.4290771484375E-07	0.38629150390625
66.9578838309476	-5.2093505859375E-07	0.3834228515625
66.982297830886	-5.2276611328125E-07	0.3828125
67.0067118308243	-5.3436279296875E-07	0.38043212890625
67.0311258307627	-5.23681640625E-07	0.37811279296875
67.055539830701	-5.89599609375E-07	0.375152587890625
67.0799538306394	-5.3558349609375E-07	0.373565673828125
67.1043678305778	-5.7403564453125E-07	0.37017822265625
67.1287818305161	-5.029296875E-07	0.367095947265625
67.1531958304545	-5.7342529296875E-07	0.36419677734375
67.1776098303928	-5.40771484375E-07	0.3626708984375
67.2020238303312	-6.2530517578125E-07	0.359466552734375
67.2264378302696	-6.201171875E-07	0.357818603515625
67.2508518302079	-6.6162109375E-07	0.354522705078125
67.2752658301463	-6.1798095703125E-07	0.35260009765625
67.2996798300846	-6.5216064453125E-07	0.350067138671875
67.324093830023	-6.4971923828125E-07	0.3489990234375
67.3485078299614	-6.5277099609375E-07	0.346649169921875
67.3729218298997	-6.79931640625E-07	0.343536376953125
67.3973358298381	-6.82373046875E-07	0.341552734375
67.4217498297764	-6.9671630859375E-07	0.339447021484375
67.4461638297148	-6.4056396484375E-07	0.335723876953125
67.4705778296532	-6.8084716796875E-07	0.332855224609375
67.4949918295915	-6.6558837890625E-07	0.330108642578125
67.5194058295299	-7.354736328125E-07	0.32965087890625
67.5438198294682	-7.3150634765625E-07	0.326416015625
67.5682338294066	-8.2427978515625E-07	0.323516845703125
67.592647829345	-7.53173828125E-07	0.320465087890625
67.6170618292833	-8.06884765625E-07	0.31884765625
67.6414758292217	-8.026123046875E-07	0.317230224609375
67.6658898291601	-8.074951171875E-07	0.314971923828125
67.6903038290984	-8.5693359375E-07	0.31121826171875
67.7147178290368	-8.8958740234375E-07	0.3092041015625
67.7391318289751	-8.9202880859375E-07	0.307220458984375
67.7635458289135	-8.3831787109375E-07	0.30462646484375
67.7879598288519	-8.7249755859375E-07	0.301239013671875
67.8123738287902	-8.3984375E-07	0.298675537109375
67.8367878287286	-9.2071533203125E-07	0.297637939453125
67.8612018286669	-9.0087890625E-07	0.29327392578125
67.8856158286053	-1.029052734375E-06	0.2919921875
67.9100298285437	-9.527587890625E-07	0.289886474609375
67.934443828482	-1.016845703125E-06	0.286224365234375
67.9588578284204	-9.9517822265625E-07	0.28424072265625
67.9832718283587	-1.03912353515625E-06	0.282928466796875
68.0076858282971	-1.07086181640625E-06	0.28082275390625
68.0320998282355	-1.1151123046875E-06	0.27630615234375
68.0565138281738	-1.1566162109375E-06	0.274200439453125
68.0809278281122	-1.12030029296875E-06	0.27252197265625
68.1053418280505	-1.15142822265625E-06	0.27117919921875
68.1297558279889	-1.13677978515625E-06	0.2684326171875
68.1541698279273	-1.19049072265625E-06	0.265289306640625
68.1785838278656	-1.1767578125E-06	0.2626953125
68.202997827804	-1.2994384765625E-06	0.2613525390625
68.2274118277423	-1.27532958984375E-06	0.25714111328125
68.2518258276807	-1.32415771484375E-06	0.2547607421875
68.2762398276191	-1.33636474609375E-06	0.251800537109375
68.3006538275574	-1.40777587890625E-06	0.251129150390625
68.3250678274958	-1.402587890625E-06	0.249176025390625
68.3494818274341	-1.49627685546875E-06	0.245941162109375
68.3738958273725	-1.55364990234375E-06	0.242462158203125
68.3983098273109	-1.55517578125E-06	0.24005126953125
68.4227238272492	-1.5869140625E-06	0.238525390625
68.4471378271876	-1.60064697265625E-06	0.23699951171875
68.4715518271259	-1.65435791015625E-06	0.2344970703125
68.4959658270643	-1.62994384765625E-06	0.23150634765625
68.5203798270027	-1.7901611328125E-06	0.228240966796875
68.544793826941	-1.79473876953125E-06	0.226043701171875
68.5692078268794	-1.83868408203125E-06	0.222869873046875
68.5936218268178	-1.8359375E-06	0.220611572265625
68.6180358267561	-1.95556640625E-06	0.2183837890625
68.6424498266945	-1.97662353515625E-06	0.21710205078125
68.6668638266328	-2.10418701171875E-06	0.215179443359375
68.6912778265712	-2.15545654296875E-06	0.211639404296875
68.7156918265096	-2.2467041015625E-06	0.208099365234375
68.7401058264479	-2.24273681640625E-06	0.20635986328125
68.7645198263863	-2.29400634765625E-06	0.205352783203125
68.7889338263246	-2.37396240234375E-06	0.202880859375
68.813347826263	-2.41607666015625E-06	0.200469970703125
68.8377618262014	-2.5311279296875E-06	0.1966552734375
68.8621758261397	-2.601318359375E-06	0.19427490234375
68.8865898260781	-2.67364501953125E-06	0.1925048828125
68.9110038260164	-2.67730712890625E-06	0.18914794921875
68.9354178259548	-2.79296875E-06	0.18670654296875
68.9598318258932	-2.861328125E-06	0.185150146484375
68.9842458258315	-2.96722412109375E-06	0.18359375
69.0086598257699	-3.08563232421875E-06	0.18115234375
69.0330738257082	-3.8543701171875E-06	0.17694091796875
69.0574878256466	-3.9337158203125E-06	0.174468994140625
69.081901825585	-4.0863037109375E-06	0.1728515625
69.1063158255233	-4.1717529296875E-06	0.1710205078125
69.1307298254617	-4.2999267578125E-06	0.16796875
69.1551438254	-4.4647216796875E-06	0.1661376953125
69.1795578253384	-4.5379638671875E-06	0.163238525390625
69.2039718252768	-4.7149658203125E-06	0.160003662109375
69.2283858252151	-4.742431640625E-06	0.15679931640625
69.2527998251535	-5.035400390625E-06	0.1546630859375
69.2772138250918	-5.09033203125E-06	0.153228759765625
69.3016278250302	-5.3466796875E-06	0.1513671875
69.3260418249686	-5.4107666015625E-06	0.147979736328125
69.3504558249069	-5.6671142578125E-06	0.1458740234375
69.3748698248453	-5.79833984375E-06	0.1431884765625
69.3992838247837	-5.9906005859375E-06	0.141510009765625
69.423697824722	-6.1248779296875E-06	0.139251708984375
69.4481118246604	-6.317138671875E-06	0.135894775390625
69.4725258245987	-6.4788818359375E-06	0.133636474609375
69.4969398245371	-6.6497802734375E-06	0.13134765625
69.5213538244755	-6.8450927734375E-06	0.12908935546875
69.5457678244138	-6.9580078125E-06	0.1253662109375
69.5701818243522	-7.2174072265625E-06	0.122894287109375
69.5945958242905	-7.33642578125E-06	0.12115478515625
69.6190098242289	-7.5958251953125E-06	0.119781494140625
69.6434238241673	-7.71484375E-06	0.11676025390625
69.6678378241056	-8.04443359375E-06	0.114593505859375
69.692251824044	-8.172607421875E-06	0.1123046875
69.7166658239823	-8.4686279296875E-06	0.109710693359375
69.7410798239207	-8.63037109375E-06	0.10760498046875
69.7654938238591	-8.8409423828125E-06	0.10498046875
69.7899078237974	-9.0850830078125E-06	0.10223388671875
69.8143218237358	-9.3231201171875E-06	0.099365234375
69.8387358236741	-9.5550537109375E-06	0.097412109375
69.8631498236125	-9.7198486328125E-06	0.09539794921875
69.8875638235509	-1.00372314453125E-05	0.091583251953125
69.9119778234892	-1.01837158203125E-05	0.088653564453125
69.9363918234276	-1.05224609375E-05	0.086517333984375
69.9608058233659	-1.0675048828125E-05	0.08551025390625
69.9852198233043	-1.09619140625E-05	0.082244873046875
70.0096338232427	-1.12274169921875E-05	0.080810546875
70.034047823181	-1.1627197265625E-05	0.078125
70.0584618231194	-1.18133544921875E-05	0.07568359375
70.0828758230577	-1.2164306640625E-05	0.07342529296875
70.1072898229961	-1.24267578125E-05	0.0703125
70.1317038229345	-1.2750244140625E-05	0.0675048828125
70.1561178228728	-1.30340576171875E-05	0.065338134765625
70.1805318228112	-1.337890625E-05	0.0638427734375
70.2049458227496	-1.36962890625E-05	0.061004638671875
70.2293598226879	-1.39862060546875E-05	0.057586669921875
70.2537738226263	-1.436767578125E-05	0.054473876953125
70.2781878225646	-1.45965576171875E-05	0.052734375
70.302601822503	-1.50482177734375E-05	0.049957275390625
70.3270158224414	-1.533203125E-05	0.0475677490234375
70.3514298223797	-1.58172607421875E-05	0.0466949462890625
70.3758438223181	-1.61376953125E-05	0.0442108154296875
70.4002578222564	-1.663818359375E-05	0.0414947509765625
70.4246718221948	-1.6937255859375E-05	0.03826904296875
70.4490858221332	-1.73828125E-05	0.0352142333984375
70.4734998220715	-1.77947998046875E-05	0.032537841796875
70.4979138220099	-1.82220458984375E-05	0.0319580078125
70.5223278219482	-1.87225341796875E-05	0.0295135498046875
70.5467418218866	-1.912841796875E-05	0.025628662109375
70.571155821825	-1.9647216796875E-05	0.022906494140625
70.5955698217633	-2.00103759765625E-05	0.0207611083984375
70.6199838217017	-2.05657958984375E-05	0.0194793701171875
70.64439782164	-2.10052490234375E-05	0.016796875
70.6688118215784	-2.15789794921875E-05	0.014959716796875
70.6932258215168	-2.1990966796875E-05	0.0125335693359375
70.7176398214551	-2.26348876953125E-05	0.00985107421875001
70.7420538213935	-2.31536865234375E-05	0.00644836425781251
70.7664678213318	-2.37701416015625E-05	0.0034454345703125
70.7908818212702	-2.42706298828125E-05	0.0016143798828125
70.8152958212086	-2.490234375E-05	-0.00110473632812499
70.8397098211469	-2.54730224609375E-05	-0.0022125244140625
70.8641238210853	-2.60650634765625E-05	-0.0058563232421875
70.8885378210236	-2.67181396484375E-05	-0.0087127685546875
70.912951820962	-2.7325439453125E-05	-0.0108154296875
70.9373658209004	-2.80242919921875E-05	-0.0128265380859375
70.9617798208387	-2.8533935546875E-05	-0.0154449462890625
70.9861938207771	-2.935791015625E-05	-0.0168792724609375
71.0106078207154	-2.99285888671875E-05	-0.019635009765625
71.0350218206538	-3.0731201171875E-05	-0.0224273681640625
71.0594358205922	-3.140869140625E-05	-0.0256134033203125
71.0838498205305	-3.22357177734375E-05	-0.0272674560546875
71.1082638204689	-3.29376220703125E-05	-0.029315185546875
71.1326778204073	-3.37615966796875E-05	-0.0330535888671875
71.1570918203456	-3.44879150390625E-05	-0.03499755859375
71.181505820284	-3.53057861328125E-05	-0.0378021240234375
71.2059198202223	-3.61328125E-05	-0.0398223876953125
71.2303338201607	-3.69384765625E-05	-0.0415771484375
71.2547478200991	-3.78387451171875E-05	-0.0438629150390625
71.2791618200374	-3.8604736328125E-05	-0.0465057373046875
71.3035758199758	-3.955078125E-05	-0.0500946044921875
71.3279898199141	-4.03228759765625E-05	-0.05169677734375
71.3524038198525	-4.13818359375E-05	-0.05474853515625
71.3768178197909	-4.2236328125E-05	-0.057403564453125
71.4012318197292	-4.3304443359375E-05	-0.05975341796875
71.4256458196676	-4.4158935546875E-05	-0.06134033203125
71.4500598196059	-4.5196533203125E-05	-0.06439208984375
71.4744738195443	-4.620361328125E-05	-0.067047119140625
71.4988878194827	-4.7271728515625E-05	-0.06964111328125
71.523301819421	-4.8309326171875E-05	-0.07208251953125
71.5477158193594	-4.931640625E-05	-0.073760986328125
71.5721298192977	-5.04150390625E-05	-0.07574462890625
71.5965438192361	-5.145263671875E-05	-0.07806396484375
71.6209578191745	-5.2642822265625E-05	-0.0804443359375
71.6453718191128	-5.3741455078125E-05	-0.08294677734375
71.6697858190512	-5.4962158203125E-05	-0.086181640625
71.6941998189895	-5.60302734375E-05	-0.089111328125
71.7186138189279	-5.7342529296875E-05	-0.091461181640625
71.7430278188663	-5.8502197265625E-05	-0.093017578125
71.7674418188046	-5.9906005859375E-05	-0.09515380859375
71.791855818743	-6.109619140625E-05	-0.098724365234375
71.8162698186813	-6.25E-05	-0.10125732421875
71.8406838186197	-6.3812255859375E-05	-0.10357666015625
71.8650978185581	-6.512451171875E-05	-0.105194091796875
71.8895118184964	-6.6497802734375E-05	-0.107330322265625
71.9139258184348	-6.7901611328125E-05	-0.109893798828125
71.9383398183732	-6.9366455078125E-05	-0.113616943359375
71.9627538183115	-7.0770263671875E-05	-0.114990234375
71.9871678182499	-7.2296142578125E-05	-0.117401123046875
72.0115818181882	-7.373046875E-05	-0.120819091796875
72.0359958181266	-7.5439453125E-05	-0.123321533203125
72.060409818065	-7.6873779296875E-05	-0.124969482421875
72.0848238180033	-7.8582763671875E-05	-0.127044677734375
72.1092378179417	-8.0108642578125E-05	-0.129791259765625
72.13365181788	-8.197021484375E-05	-0.131683349609375
72.1580658178184	-8.3587646484375E-05	-0.134613037109375
72.1824798177568	-8.5418701171875E-05	-0.136627197265625
72.2068938176951	-8.7158203125E-05	-0.139556884765625
72.2313078176335	-8.8958740234375E-05	-0.142486572265625
72.2557218175718	-9.088134765625E-05	-0.14404296875
72.2801358175102	-9.27734375E-05	-0.146820068359375
72.3045498174486	-9.4757080078125E-05	-0.149017333984375
72.3289638173869	-9.66796875E-05	-0.152435302734375
72.3533778173253	-9.881591796875E-05	-0.154449462890625
72.3777918172636	-0.0001007080078125	-0.15625
72.402205817202	-0.000102996826171875	-0.158782958984375
72.4266198171404	-0.000105072021484375	-0.16107177734375
72.4510338170787	-0.00010748291015625	-0.16485595703125
72.4754478170171	-0.00010968017578125	-0.16619873046875
72.4998618169554	-0.00011212158203125	-0.168853759765625
72.5242758168938	-0.00011444091796875	-0.171905517578125
72.5486898168322	-0.000116943359375	-0.17449951171875
72.5731038167705	-0.000119476318359375	-0.176513671875
72.5975178167089	-0.000121917724609375	-0.17852783203125
72.6219318166472	-0.000124542236328125	-0.181671142578125
72.6463458165856	-0.00012713623046875	-0.184051513671875
72.670759816524	-0.000129913330078125	-0.185577392578125
72.6951738164623	-0.000132476806640625	-0.18780517578125
72.7195878164007	-0.0001353759765625	-0.1905517578125
72.7440018163391	-0.0001380615234375	-0.194061279296875
72.7684158162774	-0.00014105224609375	-0.195770263671875
72.7928298162158	-0.00014385986328125	-0.1988525390625
72.8172438161541	-0.00014697265625	-0.201171875
72.8416578160925	-0.00014984130859375	-0.203338623046875
72.8660718160309	-0.000152923583984375	-0.20477294921875
72.8904858159692	-0.00015594482421875	-0.207366943359375
72.9148998159076	-0.0001590576171875	-0.210723876953125
72.9393138158459	-0.0001622314453125	-0.2120361328125
72.9637278157843	-0.0001654052734375	-0.21478271484375
72.9881418157227	-0.000168701171875	-0.217071533203125
73.012555815661	-0.000171966552734375	-0.22015380859375
73.0369698155994	-0.0001754150390625	-0.22296142578125
73.0613838155377	-0.000178741455078125	-0.225189208984375
73.0857978154761	-0.000182281494140625	-0.226593017578125
73.1102118154145	-0.000185760498046875	-0.22918701171875
73.1346258153528	-0.000189483642578125	-0.231597900390625
73.1590398152912	-0.000193115234375	-0.234100341796875
73.1834538152295	-0.000197021484375	-0.23687744140625
73.2078678151679	-0.000200775146484375	-0.2401123046875
73.2322818151063	-0.000204742431640625	-0.242706298828125
73.2566958150446	-0.000208770751953125	-0.24359130859375
73.281109814983	-0.000212738037109375	-0.246307373046875
73.3055238149213	-0.00021697998046875	-0.249420166015625
73.3299378148597	-0.000221160888671875	-0.252288818359375
73.3543518147981	-0.000225616455078125	-0.254241943359375
73.3787658147364	-0.00022991943359375	-0.256134033203125
73.4031798146748	-0.000234588623046875	-0.25946044921875
73.4275938146131	-0.000239044189453125	-0.261993408203125
73.4520078145515	-0.00024395751953125	-0.263702392578125
73.4764218144899	-0.000248687744140625	-0.266571044921875
73.5008358144282	-0.000253753662109375	-0.26934814453125
73.5252498143666	-0.000258758544921875	-0.271331787109375
73.5496638143049	-0.000263946533203125	-0.2728271484375
73.5740778142433	-0.000269195556640625	-0.275238037109375
73.5984918141817	-0.000274566650390625	-0.278900146484375
73.62290581412	-0.00028009033203125	-0.281463623046875
73.6473198140584	-0.00028564453125	-0.282806396484375
73.6717338139968	-0.000291412353515625	-0.284942626953125
73.6961478139351	-0.000297210693359375	-0.287750244140625
73.7205618138735	-0.000303314208984375	-0.290771484375
73.7449758138118	-0.000309356689453125	-0.293060302734375
73.7693898137502	-0.00031573486328125	-0.2965087890625
73.7938038136886	-0.000322052001953125	-0.298736572265625
73.8182178136269	-0.00032879638671875	-0.300506591796875
73.8426318135653	-0.00033544921875	-0.302581787109375
73.8670458135036	-0.000342498779296875	-0.3060302734375
73.891459813442	-0.0003494873046875	-0.3077392578125
73.9158738133804	-0.0003568115234375	-0.311309814453125
73.9402878133187	-0.00036431884765625	-0.312347412109375
73.9647018132571	-0.00037188720703125	-0.315460205078125
73.9891158131954	-0.00037969970703125	-0.318450927734375
74.0135298131338	-0.000387603759765625	-0.320831298828125
74.0379438130722	-0.000395843505859375	-0.32305908203125
74.0623578130105	-0.000404083251953125	-0.324432373046875
74.0867718129489	-0.0004127197265625	-0.327178955078125
74.1111858128872	-0.000421295166015625	-0.329437255859375
74.1355998128256	-0.000430450439453125	-0.332489013671875
74.160013812764	-0.000439483642578125	-0.335662841796875
74.1844278127023	-0.000449005126953125	-0.33770751953125
74.2088418126407	-0.000458465576171875	-0.339202880859375
74.233255812579	-0.0004683837890625	-0.34271240234375
74.2576698125174	-0.00047833251953125	-0.345367431640625
74.2820838124558	-0.0004886474609375	-0.3475341796875
74.3064978123941	-0.000499267578125	-0.34912109375
74.3309118123325	-0.0005096435546875	-0.3515625
74.3553258122708	-0.0005206298828125	-0.3543701171875
74.3797398122092	-0.0005316162109375	-0.356170654296875
74.4041538121476	-0.00054290771484375	-0.360015869140625
74.4285678120859	-0.00055419921875	-0.362396240234375
74.4529818120243	-0.00056610107421875	-0.364349365234375
74.4773958119627	-0.0005780029296875	-0.3662109375
74.501809811901	-0.0005902099609375	-0.368438720703125
74.5262238118394	-0.0006024169921875	-0.372100830078125
74.5506378117777	-0.00061492919921875	-0.3734130859375
74.5750518117161	-0.00062774658203125	-0.377105712890625
74.5994658116545	-0.00064056396484375	-0.37896728515625
74.6238798115928	-0.0006536865234375	-0.381744384765625
74.6482938115312	-0.0006671142578125	-0.384307861328125
74.6727078114695	-0.0006805419921875	-0.3861083984375
74.6971218114079	-0.00069427490234375	-0.388092041015625
74.7215358113463	-0.0007086181640625	-0.391571044921875
74.7459498112846	-0.00072265625	-0.393463134765625
74.770363811223	-0.0007373046875	-0.395294189453125
74.7947778111613	-0.000751953125	-0.39849853515625
74.8191918110997	-0.0007672119140625	-0.4013671875
74.8436058110381	-0.00078216552734375	-0.40350341796875
74.8680198109764	-0.00079803466796875	-0.40570068359375
74.8924338109148	-0.0008135986328125	-0.408660888671875
74.9168478108531	-0.000830078125	-0.4100341796875
74.9412618107915	-0.00084625244140625	-0.412445068359375
74.9656758107299	-0.000863037109375	-0.414825439453125
74.9900898106682	-0.000880126953125	-0.4180908203125
75.0145038106066	-0.00089752197265625	-0.421051025390625
75.0389178105449	-0.00091522216796875	-0.42279052734375
75.0633318104833	-0.0009332275390625	-0.42547607421875
75.0877458104217	-0.0009515380859375	-0.42828369140625
75.11215981036	-0.00097015380859375	-0.4300537109375
75.1365738102984	-0.0009893798828125	-0.431976318359375
75.1609878102367	-0.00100860595703125	-0.43438720703125
75.1854018101751	-0.0010284423828125	-0.437957763671875
75.2098158101135	-0.00104827880859375	-0.4405517578125
75.2342298100518	-0.00106903076171875	-0.44287109375
75.2586438099902	-0.00108978271484375	-0.445281982421875
75.2830578099286	-0.00111114501953125	-0.447357177734375
75.3074718098669	-0.00113250732421875	-0.449005126953125
75.3318858098053	-0.00115447998046875	-0.451385498046875
75.3562998097436	-0.0011767578125	-0.453765869140625
75.380713809682	-0.0011993408203125	-0.457550048828125
75.4051278096204	-0.0012225341796875	-0.458831787109375
75.4295418095587	-0.0012457275390625	-0.46148681640625
75.4539558094971	-0.00126953125	-0.46478271484375
75.4783698094354	-0.00129364013671875	-0.467254638671875
75.5027838093738	-0.00131805419921875	-0.46881103515625
75.5271978093122	-0.0013427734375	-0.472198486328125
75.5516118092505	-0.00136810302734375	-0.4736328125
75.5760258091889	-0.0013934326171875	-0.475982666015625
75.6004398091272	-0.001419677734375	-0.478759765625
75.6248538090656	-0.00144561767578125	-0.481597900390625
75.649267809004	-0.00147247314453125	-0.484130859375
75.6736818089423	-0.00149932861328125	-0.485687255859375
75.6980958088807	-0.00152679443359375	-0.489166259765625
75.722509808819	-0.00155426025390625	-0.491455078125
75.7469238087574	-0.00158233642578125	-0.4940185546875
75.7713378086958	-0.0016107177734375	-0.495513916015625
75.7957518086341	-0.00163909912109375	-0.49761962890625
75.8201658085725	-0.0016680908203125	-0.500335693359375
75.8445798085108	-0.0016973876953125	-0.50335693359375
75.8689938084492	-0.00172698974609375	-0.504791259765625
75.8934078083876	-0.001756591796875	-0.508453369140625
75.9178218083259	-0.001787109375	-0.510406494140625
75.9422358082643	-0.0018170166015625	-0.512451171875
75.9666498082026	-0.00184783935546875	-0.51470947265625
75.991063808141	-0.001878662109375	-0.517974853515625
76.0154778080794	-0.0019097900390625	-0.51953125
76.0398918080177	-0.00194122314453125	-0.522216796875
76.0643058079561	-0.00197235107421875	-0.524261474609375
76.0887198078944	-0.00200439453125	-0.52740478515625
76.1131338078328	-0.0020361328125	-0.530548095703125
76.1375478077712	-0.00206817626953125	-0.53271484375
76.1619618077095	-0.00209991455078125	-0.53424072265625
76.1863758076479	-0.002132568359375	-0.536376953125
76.2107898075863	-0.00216461181640625	-0.53900146484375
76.2352038075246	-0.00219696044921875	-0.542083740234375
76.259617807463	-0.0022296142578125	-0.545013427734375
76.2840318074013	-0.00226226806640625	-0.54736328125
76.3084458073397	-0.00229461669921875	-0.548828125
76.3328598072781	-0.0023272705078125	-0.551025390625
76.3572738072164	-0.00235992431640625	-0.55499267578125
76.3816878071548	-0.00239227294921875	-0.557098388671875
76.4061018070931	-0.0024249267578125	-0.559295654296875
76.4305158070315	-0.002457275390625	-0.560791015625
76.4549298069699	-0.00248992919921875	-0.56365966796875
76.4793438069082	-0.00252227783203125	-0.56646728515625
76.5037578068466	-0.002554931640625	-0.568023681640625
76.5281718067849	-0.00258697509765625	-0.571319580078125
76.5525858067233	-0.00261962890625	-0.5740966796875
76.5769998066617	-0.00265167236328125	-0.575439453125
76.6014138066	-0.00268402099609375	-0.577911376953125
76.6258278065384	-0.002716064453125	-0.581329345703125
76.6502418064767	-0.00274810791015625	-0.583770751953125
76.6746558064151	-0.0027801513671875	-0.58514404296875
76.6990698063535	-0.00281219482421875	-0.588836669921875
76.7234838062918	-0.00284393310546875	-0.5909423828125
76.7478978062302	-0.00287567138671875	-0.593597412109375
76.7723118061685	-0.00290771484375	-0.595428466796875
76.7967258061069	-0.00293914794921875	-0.59722900390625
76.8211398060453	-0.00297119140625	-0.599700927734375
76.8455538059836	-0.00300262451171875	-0.602264404296875
76.869967805922	-0.00303466796875	-0.604766845703125
76.8943818058603	-0.00306610107421875	-0.6082763671875
76.9187958057987	-0.00309814453125	-0.61077880859375
76.9432098057371	-0.0031298828125	-0.61248779296875
76.9676238056754	-0.00316192626953125	-0.614349365234375
76.9920378056138	-0.00319366455078125	-0.6165771484375
77.0164518055522	-0.0032257080078125	-0.620574951171875
77.0408658054905	-0.00325775146484375	-0.621673583984375
77.0652798054289	-0.003289794921875	-0.624114990234375
77.0896938053672	-0.0033221435546875	-0.626922607421875
77.1141078053056	-0.00335418701171875	-0.630126953125
77.138521805244	-0.0033868408203125	-0.632537841796875
77.1629358051823	-0.003419189453125	-0.6341552734375
77.1873498051207	-0.00345184326171875	-0.63751220703125
77.211763805059	-0.0034844970703125	-0.639068603515625
77.2361778049974	-0.0035174560546875	-0.64105224609375
77.2605918049358	-0.00355010986328125	-0.64410400390625
77.2850058048741	-0.0035833740234375	-0.647216796875
77.3094198048125	-0.0036163330078125	-0.64862060546875
77.3338338047508	-0.00364959716796875	-0.65179443359375
77.3582478046892	-0.003682861328125	-0.65435791015625
77.3826618046276	-0.00371612548828125	-0.656646728515625
77.4070758045659	-0.0037493896484375	-0.658538818359375
77.4314898045043	-0.0037823486328125	-0.660430908203125
77.4559038044426	-0.00381561279296875	-0.663116455078125
77.480317804381	-0.0038482666015625	-0.665252685546875
77.5047318043194	-0.00388153076171875	-0.66900634765625
77.5291458042577	-0.00391387939453125	-0.670623779296875
77.5535598041961	-0.00394683837890625	-0.6739501953125
77.5779738041344	-0.00397918701171875	-0.675933837890625
77.6023878040728	-0.00401153564453125	-0.677642822265625
77.6268018040112	-0.00404296875	-0.68035888671875
77.6512158039495	-0.00407470703125	-0.6827392578125
77.6756298038879	-0.0041058349609375	-0.68603515625
77.7000438038262	-0.00413665771484375	-0.688018798828125
77.7244578037646	-0.00416656494140625	-0.69024658203125
77.748871803703	-0.00419647216796875	-0.693328857421875
77.7732858036413	-0.00422576904296875	-0.694854736328125
77.7976998035797	-0.004254150390625	-0.69696044921875
77.8221138035181	-0.00428253173828125	-0.700714111328125
77.8465278034564	-0.00430999755859375	-0.70306396484375
77.8709418033948	-0.004337158203125	-0.70465087890625
77.8953558033331	-0.00436370849609375	-0.706634521484375
77.9197698032715	-0.0043896484375	-0.709625244140625
77.9441838032099	-0.0044146728515625	-0.7127685546875
77.9685978031482	-0.004439697265625	-0.71533203125
77.9930118030866	-0.00446380615234375	-0.717193603515625
78.0174258030249	-0.00448760986328125	-0.719207763671875
78.0418398029633	-0.004510498046875	-0.721527099609375
78.0662538029017	-0.0045330810546875	-0.723602294921875
78.09066780284	-0.0045550537109375	-0.72637939453125
78.1150818027784	-0.004576416015625	-0.729766845703125
78.1394958027167	-0.00459747314453125	-0.732025146484375
78.1639098026551	-0.004617919921875	-0.73358154296875
78.1883238025935	-0.00463775634765625	-0.735687255859375
78.2127378025318	-0.00465728759765625	-0.739532470703125
78.2371518024702	-0.004676513671875	-0.741851806640625
78.2615658024085	-0.00469482421875	-0.7435302734375
78.2859798023469	-0.004713134765625	-0.745635986328125
78.3103938022853	-0.0047308349609375	-0.748870849609375
78.3348078022236	-0.00474853515625	-0.751190185546875
78.359221802162	-0.004765625	-0.75592041015625
78.3836358021003	-0.0047821044921875	-0.7574462890625
78.4080498020387	-0.004798583984375	-0.75897216796875
78.4324638019771	-0.004814453125	-0.76141357421875
78.4568778019154	-0.00483001708984375	-0.76385498046875
78.4812918018538	-0.00484527587890625	-0.7684326171875
78.5057058017921	-0.00486053466796875	-0.76934814453125
78.5301198017305	-0.00487518310546875	-0.77117919921875
78.5545338016689	-0.0048895263671875	-0.775146484375
78.5789478016072	-0.00490386962890625	-0.77789306640625
78.6033618015456	-0.00491790771484375	-0.7794189453125
78.6277758014839	-0.00493133544921875	-0.7818603515625
78.6521898014223	-0.00494476318359375	-0.7830810546875
78.6766038013607	-0.0049578857421875	-0.78582763671875
78.701017801299	-0.004970703125	-0.78857421875
78.7254318012374	-0.0049835205078125	-0.792236328125
78.7498458011758	-0.00499603271484375	-0.794677734375
78.7742598011141	-0.00500823974609375	-0.79559326171875
78.7986738010525	-0.0050201416015625	-0.79864501953125
78.8230878009908	-0.0050323486328125	-0.802001953125
78.8475018009292	-0.0050439453125	-0.80413818359375
78.8719158008676	-0.0050555419921875	-0.8056640625
78.8963298008059	-0.00506683349609375	-0.80780029296875
78.9207438007443	-0.005078125	-0.81024169921875
78.9451578006826	-0.005089111328125	-0.81298828125
78.969571800621	-0.00509979248046875	-0.8148193359375
78.9939858005594	-0.0051104736328125	-0.81939697265625
79.0183998004977	-0.00512115478515625	-0.821533203125
79.0428138004361	-0.0051312255859375	-0.82305908203125
79.0672278003744	-0.0051416015625	-0.8251953125
79.0916418003128	-0.00515167236328125	-0.828857421875
79.1160558002512	-0.0051617431640625	-0.8294677734375
79.1404698001895	-0.0051715087890625	-0.83343505859375
79.1648838001279	-0.0051812744140625	-0.83526611328125
79.1892978000662	-0.00519073486328125	-0.83831787109375
79.2137118000046	-0.0052001953125	-0.8404541015625
79.238125799943	-0.00520965576171875	-0.8428955078125
79.2625397998813	-0.00521881103515625	-0.8441162109375
79.2869537998197	-0.00522796630859375	-0.84625244140625
79.311367799758	-0.00523681640625	-0.84930419921875
79.3357817996964	-0.00524566650390625	-0.85235595703125
79.3601957996348	-0.00525421142578125	-0.85540771484375
79.3846097995731	-0.0052630615234375	-0.858154296875
79.4090237995115	-0.0052716064453125	-0.85906982421875
79.4334377994498	-0.0052801513671875	-0.8612060546875
79.4578517993882	-0.00528839111328125	-0.865478515625
79.4822657993266	-0.005296630859375	-0.86669921875
79.5066797992649	-0.0053045654296875	-0.8685302734375
79.5310937992033	-0.0053125	-0.87158203125
79.5555077991417	-0.0053204345703125	-0.8746337890625
79.57992179908	-0.005328369140625	-0.877685546875
79.6043357990184	-0.00533599853515625	-0.8782958984375
79.6287497989567	-0.0053436279296875	-0.882568359375
79.6531637988951	-0.00535125732421875	-0.885009765625
79.6775777988335	-0.00535858154296875	-0.8856201171875
79.7019917987718	-0.0053662109375	-0.8880615234375
79.7264057987102	-0.00537322998046875	-0.892333984375
79.7508197986485	-0.00538055419921875	-0.894775390625
79.7752337985869	-0.0053875732421875	-0.897216796875
79.7996477985253	-0.00539459228515625	-0.9002685546875
79.8240617984636	-0.005401611328125	-0.902099609375
79.848475798402	-0.0054083251953125	-0.90484619140625
79.8728897983403	-0.0054150390625	-0.9063720703125
79.8973037982787	-0.0054217529296875	-0.90850830078125
79.9217177982171	-0.005428466796875	-0.91033935546875
79.9461317981554	-0.00543487548828125	-0.914306640625
79.9705457980938	-0.00544158935546875	-0.91522216796875
79.9949597980321	-0.00544769287109375	-0.91827392578125
80.0193737979705	-0.0054541015625	-0.921630859375
80.0437877979089	-0.00546051025390625	-0.92437744140625
80.0682017978472	-0.00546661376953125	-0.92498779296875
80.0926157977856	-0.00547271728515625	-0.9283447265625
80.1170297977239	-0.005478515625	-0.93048095703125
80.1414437976623	-0.005484619140625	-0.9320068359375
80.1658577976007	-0.00549041748046875	-0.93505859375
80.190271797539	-0.0054962158203125	-0.93780517578125
80.2146857974774	-0.00550201416015625	-0.94146728515625
80.2390997974157	-0.0055078125	-0.9429931640625
80.2635137973541	-0.0055133056640625	-0.946044921875
80.2879277972925	-0.005518798828125	-0.9478759765625
80.3123417972308	-0.0055242919921875	-0.95062255859375
80.3367557971692	-0.00552978515625	-0.9527587890625
80.3611697971076	-0.00553497314453125	-0.95428466796875
80.3855837970459	-0.00554046630859375	-0.95703125
80.4099977969843	-0.005545654296875	-0.9600830078125
80.4344117969226	-0.005550537109375	-0.9613037109375
80.458825796861	-0.00555572509765625	-0.96527099609375
80.4832397967994	-0.00556060791015625	-0.968017578125
80.5076537967377	-0.00556549072265625	-0.9698486328125
80.5320677966761	-0.0055706787109375	-0.97137451171875
80.5564817966144	-0.00557525634765625	-0.97320556640625
80.5808957965528	-0.00558013916015625	-0.977783203125
80.6053097964912	-0.005584716796875	-0.97869873046875
80.6297237964295	-0.005589599609375	-0.98114013671875
80.6541377963679	-0.00559417724609375	-0.98358154296875
80.6785517963062	-0.00559844970703125	-0.987548828125
80.7029657962446	-0.00560302734375	-0.989990234375
80.727379796183	-0.00560760498046875	-0.9912109375
80.7517937961213	-0.00561187744140625	-0.9930419921875
80.7762077960597	-0.00561614990234375	-0.99609375
80.800621795998	-0.00562042236328125	-0.99822998046875
80.8250357959364	-0.00562469482421875	-1.0003662109375
