Time (s)	WE(1).Current (A)	WE(1).Potential (V)
62.5444498420904	4.3060302734375E-08	0.99822998046875
62.788590841474	3.2318115234375E-08	0.99334716796875
63.0327318408577	2.5177001953125E-08	0.992431640625
63.2768728402413	3.3447265625E-08	0.99090576171875
63.5210138396249	2.862548828125E-08	0.98846435546875
63.7651548390085	2.2918701171875E-08	0.986328125
64.0092958383921	2.38037109375E-08	0.9814453125
64.2534368377757	1.9866943359375E-08	0.9808349609375
64.4975778371593	2.1728515625E-08	0.977783203125
64.7417188365429	1.7669677734375E-08	0.97625732421875
64.9858598359265	2.0965576171875E-08	0.97198486328125
65.2300008353101	2.3773193359375E-08	0.96954345703125
65.4741418346937	1.434326171875E-08	0.966796875
65.7182828340773	1.470947265625E-08	0.96527099609375
65.9624238334609	1.788330078125E-08	0.96343994140625
66.2065648328445	9.94873046875E-09	0.95916748046875
66.4507058322281	1.0650634765625E-08	0.9576416015625
66.6948468316117	1.30615234375E-08	0.95550537109375
66.9389878309953	1.13525390625E-08	0.9521484375
67.1831288303789	7.232666015625E-09	0.9503173828125
67.4272698297625	1.1077880859375E-08	0.94818115234375
67.6714108291461	6.65283203125E-09	0.94635009765625
67.9155518285297	5.67626953125E-09	0.943603515625
68.1596928279133	4.33349609375E-09	0.9423828125
68.4038338272969	2.38037109375E-09	0.93780517578125
68.6479748266805	1.0345458984375E-08	0.93505859375
68.8921158260641	3.753662109375E-09	0.93414306640625
69.1362568254477	6.7138671875E-09	0.9307861328125
69.3803978248313	1.287841796875E-08	0.92987060546875
69.6245388242149	3.90625E-09	0.92620849609375
69.8686798235985	-1.922607421875E-09	0.9246826171875
70.1128208229821	9.674072265625E-09	0.92071533203125
70.3569618223657	1.068115234375E-09	0.9197998046875
70.6011028217494	-1.708984375E-09	0.916748046875
70.845243821133	8.270263671875E-09	0.91522216796875
71.0893848205166	2.0751953125E-09	0.9124755859375
71.3335258199002	-1.5869140625E-09	0.90850830078125
71.5776668192838	2.13623046875E-10	0.9075927734375
71.8218078186674	-1.190185546875E-09	0.90362548828125
72.065948818051	3.662109375E-09	0.90240478515625
72.3100898174346	-1.220703125E-09	0.8984375
72.5542308168182	8.544921875E-10	0.897216796875
72.7983718162018	6.34765625E-09	0.8953857421875
73.0425128155854	3.0517578125E-11	0.89324951171875
73.286653814969	-2.50244140625E-09	0.8880615234375
73.5307948143526	4.608154296875E-09	0.887451171875
73.7749358137362	-4.2724609375E-10	0.88470458984375
74.0190768131198	-4.730224609375E-09	0.882568359375
74.2632178125034	2.0751953125E-09	0.8795166015625
74.507358811887	-2.86865234375E-09	0.877685546875
74.7514998112706	-5.7373046875E-09	0.87554931640625
74.9956408106542	-2.62451171875E-09	0.87432861328125
75.2397818100378	-4.7607421875E-09	0.87066650390625
75.4839228094214	-6.77490234375E-09	0.86700439453125
75.728063808805	-4.08935546875E-09	0.86578369140625
75.9722048081886	-3.692626953125E-09	0.8636474609375
76.2163458075722	3.448486328125E-09	0.8612060546875
76.4604868069558	-5.523681640625E-09	0.859375
76.7046278063394	-3.326416015625E-09	0.85479736328125
76.948768805723	5.7373046875E-09	0.85174560546875
77.1929098051066	-3.936767578125E-09	0.85113525390625
77.4370508044902	-5.7373046875E-09	0.84747314453125
77.6811918038738	1.52587890625E-10	0.84686279296875
77.9253328032574	-4.547119140625E-09	0.84442138671875
78.1694738026411	-1.0101318359375E-08	0.83984375
78.4136148020247	-1.0986328125E-09	0.83892822265625
78.6577558014083	-5.523681640625E-09	0.8367919921875
78.9018968007919	-9.307861328125E-09	0.83404541015625
79.1460378001755	-3.997802734375E-09	0.83038330078125
79.3901787995591	-6.9580078125E-09	0.82794189453125
79.6343197989427	-4.150390625E-09	0.82611083984375
79.8784607983263	-7.50732421875E-09	0.8233642578125
80.1226017977099	-4.486083984375E-09	0.8209228515625
80.3667427970935	-1.8310546875E-09	0.82000732421875
80.6108837964771	-5.706787109375E-09	0.8172607421875
80.8550247958607	-4.608154296875E-09	0.81512451171875
81.0991657952443	-3.35693359375E-09	0.81146240234375
81.3433067946279	-7.14111328125E-09	0.80780029296875
81.5874477940115	-7.659912109375E-09	0.80718994140625
81.8315887933951	8.544921875E-10	0.80352783203125
82.0757297927787	-5.889892578125E-09	0.80108642578125
82.3198707921623	-9.002685546875E-09	0.79925537109375
82.5640117915459	2.25830078125E-09	0.7977294921875
82.8081527909295	-5.859375E-09	0.7958984375
83.0522937903131	-1.397705078125E-08	0.79132080078125
83.2964347896967	-5.37109375E-09	0.791015625
83.5405757890803	-7.38525390625E-09	0.787353515625
83.7847167884639	-1.3641357421875E-08	0.78369140625
84.0288577878475	-6.4697265625E-09	0.782470703125
84.2729987872311	-7.9345703125E-09	0.77880859375
84.5171397866147	-4.638671875E-09	0.77911376953125
84.7612807859983	-1.11083984375E-08	0.7763671875
85.0054217853819	-8.636474609375E-09	0.77362060546875
85.2495627847655	-3.387451171875E-09	0.77056884765625
85.4937037841491	-1.06201171875E-08	0.7666015625
85.7378447835328	-8.575439453125E-09	0.76507568359375
85.9819857829164	-3.692626953125E-09	0.76202392578125
86.2261267823	-5.584716796875E-09	0.76141357421875
86.4702677816836	-8.880615234375E-09	0.75775146484375
86.7144087810672	-1.8310546875E-10	0.7568359375
86.9585497804508	-8.544921875E-09	0.75164794921875
87.2026907798344	-1.6143798828125E-08	0.75103759765625
87.446831779218	1.52587890625E-10	0.748809814453125
87.6909727786016	-9.8876953125E-09	0.746551513671875
87.9351137779852	-1.26953125E-08	0.743621826171875
88.1792547773688	-6.195068359375E-09	0.74151611328125
88.4233957767524	-7.62939453125E-09	0.739166259765625
88.667536776136	-1.2908935546875E-08	0.7357177734375
88.9116777755196	-1.0528564453125E-08	0.733551025390625
89.1558187749032	-1.251220703125E-08	0.73077392578125
89.3999597742868	-5.67626953125E-09	0.728973388671875
89.6441007736704	-1.2847900390625E-08	0.726165771484375
89.888241773054	-1.3336181640625E-08	0.7232666015625
90.1323827724376	-4.08935546875E-09	0.72064208984375
90.3765237718212	-1.1383056640625E-08	0.718505859375
90.6206647712048	-1.031494140625E-08	0.7161865234375
90.8648057705884	-4.0283203125E-09	0.713409423828125
91.108946769972	-1.263427734375E-08	0.711029052734375
91.3530877693556	-1.7822265625E-08	0.70953369140625
91.5972287687392	-2.01416015625E-09	0.70703125
91.8413697681228	-1.055908203125E-08	0.704833984375
92.0855107675064	-1.46484375E-08	0.702178955078125
92.32965176689	-6.591796875E-09	0.700286865234375
92.5737927662736	-1.190185546875E-08	0.697052001953125
92.8179337656572	-1.751708984375E-08	0.694732666015625
93.0620747650408	-1.1322021484375E-08	0.69122314453125
93.3062157644245	-1.33056640625E-08	0.68914794921875
93.5503567638081	-8.85009765625E-09	0.686676025390625
93.7944977631917	-1.3671875E-08	0.68487548828125
94.0386387625753	-1.0345458984375E-08	0.68304443359375
94.2827797619589	-4.364013671875E-09	0.68060302734375
94.5269207613425	-1.312255859375E-08	0.67822265625
94.7710617607261	-1.1260986328125E-08	0.674285888671875
95.0152027601097	-4.39453125E-09	0.672607421875
95.2593437594933	-1.3671875E-08	0.669921875
95.5034847588769	-1.416015625E-08	0.668426513671875
95.7476257582605	-4.39453125E-09	0.6640625
95.9917667576441	-9.8876953125E-09	0.663116455078125
96.2359077570277	-1.470947265625E-08	0.659759521484375
96.4800487564113	-5.035400390625E-09	0.658477783203125
96.7241897557949	-1.409912109375E-08	0.65496826171875
96.9683307551785	-1.312255859375E-08	0.6517333984375
97.2124717545621	-1.4251708984375E-08	0.650177001953125
97.4566127539457	-1.4678955078125E-08	0.647613525390625
97.7007537533293	-7.99560546875E-09	0.646209716796875
97.9448947527129	-1.531982421875E-08	0.64227294921875
98.1890357520965	-1.20849609375E-08	0.641021728515625
98.4331767514801	-4.82177734375E-09	0.639129638671875
98.6773177508637	-1.519775390625E-08	0.636322021484375
98.9214587502473	-1.3275146484375E-08	0.633819580078125
99.1655997496309	-6.622314453125E-09	0.630096435546875
99.4097407490145	-1.72119140625E-08	0.62786865234375
99.6538817483981	-1.7791748046875E-08	0.62640380859375
99.8980227477817	-9.27734375E-09	0.6240234375
100.142163747165	-1.800537109375E-08	0.621185302734375
100.386304746549	-2.28271484375E-08	0.6190185546875
100.630445745933	-1.629638671875E-08	0.6168212890625
100.874586745316	-1.7608642578125E-08	0.614410400390625
101.1187277447	-8.880615234375E-09	0.611358642578125
101.362868744083	-1.2847900390625E-08	0.60870361328125
101.607009743467	-1.5380859375E-08	0.60723876953125
101.851150742851	-9.033203125E-09	0.60479736328125
102.095291742234	-1.8951416015625E-08	0.60174560546875
102.339432741618	-1.9744873046875E-08	0.599945068359375
102.583573741001	-9.33837890625E-09	0.59686279296875
102.827714740385	-1.470947265625E-08	0.594970703125
103.071855739769	-2.01416015625E-08	0.59185791015625
103.315996739152	-1.214599609375E-08	0.589599609375
103.560137738536	-2.2735595703125E-08	0.587615966796875
103.804278737919	-1.812744140625E-08	0.585174560546875
104.048419737303	-1.8310546875E-08	0.58233642578125
104.292560736687	-2.0599365234375E-08	0.5791015625
104.53670173607	-1.226806640625E-08	0.578155517578125
104.780842735454	-2.239990234375E-08	0.573974609375
105.024983734837	-2.1148681640625E-08	0.57208251953125
105.269124734221	-1.23291015625E-08	0.569671630859375
105.513265733605	-1.8890380859375E-08	0.566680908203125
105.757406732988	-2.3529052734375E-08	0.564178466796875
106.001547732372	-1.3641357421875E-08	0.56207275390625
106.245688731755	-2.3193359375E-08	0.560638427734375
106.489829731139	-2.9022216796875E-08	0.55712890625
106.733970730523	-2.044677734375E-08	0.55450439453125
106.978111729906	-2.55126953125E-08	0.553375244140625
107.22225272929	-2.105712890625E-08	0.549346923828125
107.466393728673	-2.191162109375E-08	0.54852294921875
107.710534728057	-2.3834228515625E-08	0.54595947265625
107.954675727441	-1.6326904296875E-08	0.5426025390625
108.198816726824	-2.4505615234375E-08	0.54083251953125
108.442957726208	-2.16064453125E-08	0.5391845703125
108.687098725591	-1.26953125E-08	0.5347900390625
108.931239724975	-2.3223876953125E-08	0.53424072265625
109.175380724359	-2.9266357421875E-08	0.5303955078125
109.419521723742	-1.84326171875E-08	0.52740478515625
109.663662723126	-2.5238037109375E-08	0.526824951171875
109.907803722509	-2.9815673828125E-08	0.523162841796875
110.151944721893	-1.959228515625E-08	0.5220947265625
110.396085721277	-2.8045654296875E-08	0.519561767578125
110.64022672066	-3.0364990234375E-08	0.516143798828125
110.884367720044	-2.63671875E-08	0.513031005859375
111.128508719427	-2.850341796875E-08	0.510833740234375
111.372649718811	-2.1209716796875E-08	0.508514404296875
111.616790718195	-2.740478515625E-08	0.50738525390625
111.860931717578	-2.5238037109375E-08	0.503204345703125
112.105072716962	-2.020263671875E-08	0.5013427734375
112.349213716346	-3.0029296875E-08	0.499237060546875
112.593354715729	-3.16162109375E-08	0.497772216796875
112.837495715113	-2.056884765625E-08	0.493682861328125
113.081636714496	-3.0731201171875E-08	0.492706298828125
113.32577771388	-3.5675048828125E-08	0.48980712890625
113.569918713264	-2.2857666015625E-08	0.48748779296875
113.814059712647	-3.1646728515625E-08	0.485198974609375
114.058200712031	-3.9398193359375E-08	0.482574462890625
114.302341711414	-3.18603515625E-08	0.479339599609375
114.546482710798	-3.363037109375E-08	0.477874755859375
114.790623710182	-3.3203125E-08	0.474365234375
115.034764709565	-3.50341796875E-08	0.47198486328125
115.278905708949	-3.607177734375E-08	0.470794677734375
115.523046708332	-2.862548828125E-08	0.467193603515625
115.767187707716	-4.2572021484375E-08	0.464691162109375
116.0113287071	-3.9764404296875E-08	0.46246337890625
116.255469706483	-2.996826171875E-08	0.4610595703125
116.499610705867	-4.1534423828125E-08	0.457244873046875
116.74375170525	-4.30908203125E-08	0.454986572265625
116.987892704634	-3.45458984375E-08	0.453948974609375
117.232033704018	-3.84521484375E-08	0.451141357421875
117.476174703401	-4.5440673828125E-08	0.447967529296875
117.720315702785	-3.955078125E-08	0.445068359375
117.964456702168	-4.5196533203125E-08	0.44415283203125
118.208597701552	-4.1900634765625E-08	0.440093994140625
118.452738700936	-4.7454833984375E-08	0.43743896484375
118.696879700319	-4.595947265625E-08	0.4354248046875
118.941020699703	-4.010009765625E-08	0.433502197265625
119.185161699086	-4.62646484375E-08	0.43145751953125
119.42930269847	-4.913330078125E-08	0.4278564453125
119.673443697854	-4.16259765625E-08	0.42694091796875
119.917584697237	-5.33447265625E-08	0.424041748046875
120.161725696621	-5.352783203125E-08	0.422149658203125
120.405866696004	-4.6142578125E-08	0.419586181640625
120.650007695388	-5.0537109375E-08	0.4171142578125
120.894148694772	-5.6732177734375E-08	0.414886474609375
121.138289694155	-5.46875E-08	0.41156005859375
121.382430693539	-5.859375E-08	0.40869140625
121.626571692922	-5.9173583984375E-08	0.407196044921875
121.870712692306	-6.158447265625E-08	0.404998779296875
122.11485369169	-5.755615234375E-08	0.40234375
122.358994691073	-5.2215576171875E-08	0.399200439453125
122.603135690457	-6.207275390625E-08	0.3961181640625
122.84727668984	-6.256103515625E-08	0.395294189453125
123.091417689224	-5.7159423828125E-08	0.3914794921875
123.335558688608	-6.988525390625E-08	0.39044189453125
123.579699687991	-7.2479248046875E-08	0.386871337890625
123.823840687375	-6.3323974609375E-08	0.38531494140625
124.067981686758	-6.9061279296875E-08	0.38140869140625
124.312122686142	-7.4615478515625E-08	0.37872314453125
124.556263685526	-7.8704833984375E-08	0.37823486328125
124.800404684909	-7.745361328125E-08	0.37445068359375
125.044545684293	-7.3699951171875E-08	0.372802734375
125.288686683676	-8.4747314453125E-08	0.369293212890625
125.53282768306	-8.172607421875E-08	0.36846923828125
125.776968682444	-7.275390625E-08	0.364990234375
126.021109681827	-8.7982177734375E-08	0.36346435546875
126.265250681211	-9.4818115234375E-08	0.360107421875
126.509391680594	-8.1939697265625E-08	0.358306884765625
126.753532679978	-9.051513671875E-08	0.355712890625
126.997673679362	-9.967041015625E-08	0.35382080078125
127.241814678745	-9.0606689453125E-08	0.35064697265625
127.485955678129	-9.9456787109375E-08	0.348785400390625
127.730096677513	-1.00433349609375E-07	0.34625244140625
127.974237676896	-1.09039306640625E-07	0.3431396484375
128.21837867628	-1.0443115234375E-07	0.341949462890625
128.462519675663	-1.01806640625E-07	0.33868408203125
128.706660675047	-1.10687255859375E-07	0.336822509765625
128.950801674431	-1.11328125E-07	0.33428955078125
129.194942673814	-1.05072021484375E-07	0.331878662109375
129.439083673198	-1.1737060546875E-07	0.3292236328125
129.683224672581	-1.285400390625E-07	0.326263427734375
129.927365671965	-1.202392578125E-07	0.324432373046875
130.171506671349	-1.3287353515625E-07	0.3209228515625
130.415647670732	-1.35650634765625E-07	0.31890869140625
130.659788670116	-1.3287353515625E-07	0.315887451171875
130.903929669499	-1.42242431640625E-07	0.314117431640625
131.148070668883	-1.36993408203125E-07	0.310638427734375
131.392211668267	-1.50665283203125E-07	0.309478759765625
131.63635266765	-1.47003173828125E-07	0.305877685546875
131.880493667034	-1.49139404296875E-07	0.304443359375
132.124634666417	-1.58355712890625E-07	0.30120849609375
132.368775665801	-1.6534423828125E-07	0.2994384765625
132.612916665185	-1.622314453125E-07	0.296173095703125
132.857057664568	-1.68853759765625E-07	0.2952880859375
133.101198663952	-1.83258056640625E-07	0.29180908203125
133.345339663335	-1.754150390625E-07	0.290069580078125
133.589480662719	-1.849365234375E-07	0.2880859375
133.833621662103	-1.8487548828125E-07	0.28558349609375
134.077762661486	-1.96044921875E-07	0.282562255859375
134.32190366087	-1.99615478515625E-07	0.2808837890625
134.566044660253	-1.94122314453125E-07	0.27679443359375
134.810185659637	-2.12188720703125E-07	0.275665283203125
135.054326659021	-2.0758056640625E-07	0.273284912109375
135.298467658404	-2.091064453125E-07	0.26947021484375
135.542608657788	-2.22503662109375E-07	0.267364501953125
135.786749657171	-2.32391357421875E-07	0.265533447265625
136.030890656555	-2.27630615234375E-07	0.263031005859375
136.275031655939	-2.38189697265625E-07	0.261688232421875
136.519172655322	-2.53448486328125E-07	0.257843017578125
136.763313654706	-2.45086669921875E-07	0.255615234375
137.007454654089	-2.6055908203125E-07	0.254119873046875
137.251595653473	-2.5775146484375E-07	0.251953125
137.495736652857	-2.708740234375E-07	0.248199462890625
137.73987765224	-2.728271484375E-07	0.246551513671875
137.984018651624	-2.71026611328125E-07	0.242919921875
138.228159651007	-2.8863525390625E-07	0.241455078125
138.472300650391	-2.95989990234375E-07	0.23944091796875
138.716441649775	-2.9095458984375E-07	0.2366943359375
138.960582649158	-3.05755615234375E-07	0.233306884765625
139.204723648542	-3.564453125E-07	0.230072021484375
139.448864647925	-3.6346435546875E-07	0.228057861328125
139.693005647309	-3.6895751953125E-07	0.226959228515625
139.937146646693	-3.961181640625E-07	0.223480224609375
140.181287646076	-3.9794921875E-07	0.22113037109375
140.42542864546	-4.11376953125E-07	0.21826171875
140.669569644843	-4.1412353515625E-07	0.217010498046875
140.913710644227	-4.339599609375E-07	0.21453857421875
141.157851643611	-4.4647216796875E-07	0.21075439453125
141.401992642994	-4.4189453125E-07	0.209564208984375
141.646133642378	-4.7454833984375E-07	0.20703125
141.890274641761	-4.8065185546875E-07	0.203582763671875
142.134415641145	-4.8736572265625E-07	0.200775146484375
142.378556640529	-5.0323486328125E-07	0.1990966796875
142.622697639912	-5.2581787109375E-07	0.19683837890625
142.866838639296	-5.316162109375E-07	0.19464111328125
143.11097963868	-5.413818359375E-07	0.192474365234375
143.355120638063	-5.633544921875E-07	0.1885986328125
143.599261637447	-5.6427001953125E-07	0.186431884765625
143.84340263683	-5.8349609375E-07	0.184112548828125
144.087543636214	-5.8807373046875E-07	0.18170166015625
144.331684635598	-6.201171875E-07	0.179351806640625
144.575825634981	-6.365966796875E-07	0.178070068359375
144.819966634365	-6.40869140625E-07	0.174163818359375
145.064107633748	-6.640625E-07	0.17352294921875
145.308248633132	-6.77490234375E-07	0.170318603515625
145.552389632516	-6.9244384765625E-07	0.16845703125
145.796530631899	-7.16552734375E-07	0.164886474609375
146.040671631283	-7.4188232421875E-07	0.1639404296875
146.284812630666	-7.5836181640625E-07	0.16119384765625
146.52895363005	-7.7301025390625E-07	0.157318115234375
146.773094629434	-8.0169677734375E-07	0.156463623046875
147.017235628817	-8.1451416015625E-07	0.152679443359375
147.261376628201	-8.4259033203125E-07	0.1507568359375
147.505517627584	-8.416748046875E-07	0.1473388671875
147.749658626968	-8.8043212890625E-07	0.14501953125
147.993799626352	-9.0545654296875E-07	0.1441650390625
148.237940625735	-9.063720703125E-07	0.140411376953125
148.482081625119	-9.53369140625E-07	0.1390380859375
148.726222624502	-9.6832275390625E-07	0.13494873046875
148.970363623886	-9.918212890625E-07	0.133544921875
149.21450462327	-1.00738525390625E-06	0.130889892578125
149.458645622653	-1.048583984375E-06	0.127655029296875
149.702786622037	-1.0693359375E-06	0.125579833984375
149.94692762142	-1.09344482421875E-06	0.123382568359375
150.191068620804	-1.1328125E-06	0.122161865234375
150.435209620188	-1.14166259765625E-06	0.1187744140625
150.679350619571	-1.177978515625E-06	0.116455078125
150.923491618955	-1.18743896484375E-06	0.11444091796875
151.167632618338	-1.2322998046875E-06	0.11102294921875
151.411773617722	-1.26708984375E-06	0.10833740234375
151.655914617106	-1.2750244140625E-06	0.10614013671875
151.900055616489	-1.3360595703125E-06	0.10528564453125
152.144196615873	-1.3482666015625E-06	0.101806640625
152.388337615256	-1.37786865234375E-06	0.100372314453125
152.63247861464	-1.407470703125E-06	0.0968017578125
152.876619614024	-1.4532470703125E-06	0.09393310546875
153.120760613407	-1.47979736328125E-06	0.0919189453125
153.364901612791	-1.507568359375E-06	0.088775634765625
153.609042612174	-1.5625E-06	0.087677001953125
153.853183611558	-1.5771484375E-06	0.0841064453125
154.097324610942	-1.6314697265625E-06	0.082000732421875
154.341465610325	-1.644287109375E-06	0.08062744140625
154.585606609709	-1.68975830078125E-06	0.078216552734375
154.829747609092	-1.73553466796875E-06	0.075592041015625
155.073888608476	-1.74530029296875E-06	0.07373046875
155.31802960786	-1.81732177734375E-06	0.069610595703125
155.562170607243	-1.8359375E-06	0.0684814453125
155.806311606627	-1.8865966796875E-06	0.066436767578125
156.05045260601	-1.91162109375E-06	0.062530517578125
156.294593605394	-1.9720458984375E-06	0.059906005859375
156.538734604778	-2.00958251953125E-06	0.057464599609375
156.782875604161	-2.03643798828125E-06	0.054962158203125
157.027016603545	-2.10113525390625E-06	0.05426025390625
157.271157602928	-2.120361328125E-06	0.049835205078125
157.515298602312	-2.188720703125E-06	0.0477447509765625
157.759439601696	-2.200927734375E-06	0.0465179443359375
158.003580601079	-2.26837158203125E-06	0.0432586669921875
158.247721600463	-2.31903076171875E-06	0.041595458984375
158.491862599847	-2.34405517578125E-06	0.038677978515625
158.73600359923	-2.43072509765625E-06	0.03587646484375
158.980144598614	-2.45819091796875E-06	0.0341766357421875
159.224285597997	-2.518310546875E-06	0.0305419921875
159.468426597381	-2.55767822265625E-06	0.02916259765625
159.712567596765	-2.62176513671875E-06	0.0262237548828125
159.956708596148	-2.6715087890625E-06	0.024530029296875
160.200849595532	-2.71484375E-06	0.0212066650390625
160.444990594915	-2.79083251953125E-06	0.01929931640625
160.689131594299	-2.82745361328125E-06	0.0158905029296875
160.933272593683	-2.90069580078125E-06	0.0139312744140625
161.177413593066	-2.92694091796875E-06	0.01226806640625
161.42155459245	-3.0072021484375E-06	0.00987854003906249
161.665695591833	-3.6346435546875E-06	0.0059326171875
161.909836591217	-3.680419921875E-06	0.00420532226562501
162.153977590601	-3.7872314453125E-06	0.000927734375000003
162.398118589984	-3.8787841796875E-06	-0.000454711914062503
162.642259589368	-3.9520263671875E-06	-0.003863525390625
162.886400588751	-4.0435791015625E-06	-0.00530090332031249
163.130541588135	-4.1412353515625E-06	-0.0081634521484375
163.374682587519	-4.23583984375E-06	-0.0095489501953125
163.618823586902	-4.3182373046875E-06	-0.0128204345703125
163.862964586286	-4.412841796875E-06	-0.0145263671875
164.107105585669	-4.5135498046875E-06	-0.0168701171875
164.351246585053	-4.6234130859375E-06	-0.02022705078125
164.595387584437	-4.69970703125E-06	-0.0219970703125
164.83952858382	-4.82177734375E-06	-0.0239837646484375
165.083669583204	-4.937744140625E-06	-0.027581787109375
165.327810582587	-5.035400390625E-06	-0.0300689697265625
165.571951581971	-5.1513671875E-06	-0.0326812744140625
165.816092581355	-5.2764892578125E-06	-0.034393310546875
166.060233580738	-5.3924560546875E-06	-0.036376953125
166.304374580122	-5.5084228515625E-06	-0.0402984619140625
166.548515579505	-5.6243896484375E-06	-0.0410400390625
166.792656578889	-5.7708740234375E-06	-0.0453521728515625
167.036797578273	-5.8990478515625E-06	-0.047052001953125
167.280938577656	-6.0211181640625E-06	-0.04853515625
167.52507957704	-6.1676025390625E-06	-0.052703857421875
167.769220576423	-6.317138671875E-06	-0.054046630859375
168.013361575807	-6.4453125E-06	-0.055816650390625
168.257502575191	-6.60400390625E-06	-0.059234619140625
168.501643574574	-6.7596435546875E-06	-0.0609130859375
168.745784573958	-6.915283203125E-06	-0.06341552734375
168.989925573341	-7.073974609375E-06	-0.06732177734375
169.234066572725	-7.2296142578125E-06	-0.068145751953125
169.478207572109	-7.4127197265625E-06	-0.0721435546875
169.722348571492	-7.586669921875E-06	-0.0745849609375
169.966489570876	-7.7484130859375E-06	-0.076995849609375
170.210630570259	-7.958984375E-06	-0.079071044921875
170.454771569643	-8.1573486328125E-06	-0.0821533203125
170.698912569027	-8.33740234375E-06	-0.0828857421875
170.94305356841	-8.55712890625E-06	-0.086578369140625
171.187194567794	-8.7677001953125E-06	-0.0880126953125
171.431335567177	-8.9813232421875E-06	-0.0904541015625
171.675476566561	-9.2041015625E-06	-0.093719482421875
171.919617565945	-9.4329833984375E-06	-0.09613037109375
172.163758565328	-9.6588134765625E-06	-0.099365234375
172.407899564712	-9.9029541015625E-06	-0.099884033203125
172.652040564096	-1.0150146484375E-05	-0.103607177734375
172.896181563479	-1.04034423828125E-05	-0.10455322265625
173.140322562863	-1.0675048828125E-05	-0.107452392578125
173.384463562246	-1.09375E-05	-0.109588623046875
173.62860456163	-1.12213134765625E-05	-0.11181640625
173.872745561014	-1.1517333984375E-05	-0.116363525390625
174.116886560397	-1.180419921875E-05	-0.11834716796875
174.361027559781	-1.21246337890625E-05	-0.11932373046875
174.605168559164	-1.243896484375E-05	-0.122161865234375
174.849309558548	-1.27593994140625E-05	-0.125762939453125
175.093450557932	-1.30950927734375E-05	-0.12646484375
175.337591557315	-1.34368896484375E-05	-0.130401611328125
175.581732556699	-1.37908935546875E-05	-0.133331298828125
175.825873556082	-1.4178466796875E-05	-0.134765625
176.070014555466	-1.4532470703125E-05	-0.137939453125
176.31415555485	-1.49383544921875E-05	-0.14044189453125
176.558296554233	-1.53564453125E-05	-0.141510009765625
176.802437553617	-1.575927734375E-05	-0.145172119140625
177.046578553	-1.62017822265625E-05	-0.147216796875
177.290719552384	-1.66473388671875E-05	-0.1502685546875
177.534860551768	-1.71112060546875E-05	-0.150848388671875
177.779001551151	-1.76055908203125E-05	-0.153717041015625
178.023142550535	-1.80938720703125E-05	-0.15570068359375
178.267283549918	-1.8634033203125E-05	-0.15814208984375
178.511424549302	-1.91802978515625E-05	-0.1624755859375
178.755565548686	-1.9744873046875E-05	-0.162872314453125
178.999706548069	-2.034912109375E-05	-0.166748046875
179.243847547453	-2.09716796875E-05	-0.16796875
179.487988546836	-2.1624755859375E-05	-0.170257568359375
179.73212954622	-2.2308349609375E-05	-0.173065185546875
179.976270545604	-2.30072021484375E-05	-0.17669677734375
180.220411544987	-2.3748779296875E-05	-0.177398681640625
180.464552544371	-2.45025634765625E-05	-0.181793212890625
180.708693543754	-2.528076171875E-05	-0.1844482421875
180.952834543138	-2.61138916015625E-05	-0.1854248046875
181.196975542522	-2.6934814453125E-05	-0.18878173828125
181.441116541905	-2.777099609375E-05	-0.1895751953125
181.685257541289	-2.8656005859375E-05	-0.193450927734375
181.929398540672	-2.95135498046875E-05	-0.194488525390625
182.173539540056	-3.03802490234375E-05	-0.197021484375
182.41768053944	-3.12713623046875E-05	-0.201141357421875
182.661821538823	-3.21502685546875E-05	-0.2025146484375
182.905962538207	-3.30291748046875E-05	-0.206329345703125
183.15010353759	-3.39080810546875E-05	-0.2083740234375
183.394244536974	-3.47625732421875E-05	-0.210174560546875
183.638385536358	-3.565673828125E-05	-0.212677001953125
183.882526535741	-3.65264892578125E-05	-0.215240478515625
184.126667535125	-3.73626708984375E-05	-0.21844482421875
184.370808534508	-3.82415771484375E-05	-0.2196044921875
184.614949533892	-3.91082763671875E-05	-0.221893310546875
184.859090533276	-3.99505615234375E-05	-0.22503662109375
185.103231532659	-4.080810546875E-05	-0.227752685546875
185.347372532043	-4.166259765625E-05	-0.229400634765625
185.591513531426	-4.2510986328125E-05	-0.23223876953125
185.83565453081	-4.339599609375E-05	-0.23553466796875
186.079795530194	-4.4219970703125E-05	-0.236907958984375
186.323936529577	-4.510498046875E-05	-0.240081787109375
186.568077528961	-4.5989990234375E-05	-0.242889404296875
186.812218528344	-4.6844482421875E-05	-0.244140625
187.056359527728	-4.779052734375E-05	-0.2476806640625
187.300500527112	-4.87060546875E-05	-0.249969482421875
187.544641526495	-4.962158203125E-05	-0.251312255859375
187.788782525879	-5.059814453125E-05	-0.25494384765625
188.032923525263	-5.1513671875E-05	-0.256622314453125
188.277064524646	-5.242919921875E-05	-0.258880615234375
188.52120552403	-5.340576171875E-05	-0.26220703125
188.765346523413	-5.4351806640625E-05	-0.264312744140625
189.009487522797	-5.535888671875E-05	-0.267181396484375
189.253628522181	-5.633544921875E-05	-0.26837158203125
189.497769521564	-5.731201171875E-05	-0.27191162109375
189.741910520948	-5.8349609375E-05	-0.274322509765625
189.986051520331	-5.9417724609375E-05	-0.27593994140625
190.230192519715	-6.048583984375E-05	-0.279388427734375
190.474333519099	-6.158447265625E-05	-0.2816162109375
190.718474518482	-6.2713623046875E-05	-0.284149169921875
190.962615517866	-6.38427734375E-05	-0.285430908203125
191.206756517249	-6.5032958984375E-05	-0.288543701171875
191.450897516633	-6.6192626953125E-05	-0.29144287109375
191.695038516017	-6.744384765625E-05	-0.29376220703125
191.9391795154	-6.87255859375E-05	-0.295928955078125
192.183320514784	-7.0037841796875E-05	-0.297943115234375
192.427461514167	-7.14111328125E-05	-0.30120849609375
192.671602513551	-7.281494140625E-05	-0.303741455078125
192.915743512935	-7.421875E-05	-0.3062744140625
193.159884512318	-7.574462890625E-05	-0.3077392578125
193.404025511702	-7.7301025390625E-05	-0.309967041015625
193.648166511085	-7.891845703125E-05	-0.31231689453125
193.892307510469	-8.0596923828125E-05	-0.31494140625
194.136448509853	-8.233642578125E-05	-0.3182373046875
194.380589509236	-8.4136962890625E-05	-0.320831298828125
194.62473050862	-8.6029052734375E-05	-0.322784423828125
194.868871508003	-8.795166015625E-05	-0.3248291015625
195.113012507387	-9.002685546875E-05	-0.327850341796875
195.357153506771	-9.2132568359375E-05	-0.329437255859375
195.601294506154	-9.429931640625E-05	-0.331817626953125
195.845435505538	-9.661865234375E-05	-0.33563232421875
196.089576504921	-9.89990234375E-05	-0.3367919921875
196.333717504305	-0.0001014404296875	-0.3397216796875
196.577858503689	-0.00010400390625	-0.342498779296875
196.821999503072	-0.00010662841796875	-0.344146728515625
197.066140502456	-0.000109375	-0.346282958984375
197.310281501839	-0.00011224365234375	-0.349151611328125
197.554422501223	-0.0001151123046875	-0.351226806640625
197.798563500607	-0.00011810302734375	-0.354949951171875
198.04270449999	-0.00012115478515625	-0.35675048828125
198.286845499374	-0.000124267578125	-0.359039306640625
198.530986498757	-0.000127471923828125	-0.36114501953125
198.775127498141	-0.000130706787109375	-0.363433837890625
199.019268497525	-0.000134002685546875	-0.365936279296875
199.263409496908	-0.000137359619140625	-0.36822509765625
199.507550496292	-0.000140777587890625	-0.37091064453125
199.751691495675	-0.00014422607421875	-0.37445068359375
199.995832495059	-0.00014776611328125	-0.3756103515625
200.239973494443	-0.00015130615234375	-0.378204345703125
200.484114493826	-0.00015496826171875	-0.3804931640625
200.72825549321	-0.000158721923828125	-0.38409423828125
200.972396492593	-0.00016253662109375	-0.385406494140625
201.216537491977	-0.00016650390625	-0.387725830078125
201.460678491361	-0.00017059326171875	-0.39154052734375
201.704819490744	-0.000174835205078125	-0.392822265625
201.948960490128	-0.000179290771484375	-0.395050048828125
202.193101489511	-0.00018402099609375	-0.397613525390625
202.437242488895	-0.00018896484375	-0.400054931640625
202.681383488279	-0.000194305419921875	-0.402252197265625
202.925524487662	-0.0002000732421875	-0.405426025390625
203.169665487046	-0.000206329345703125	-0.40826416015625
203.41380648643	-0.00021319580078125	-0.410614013671875
203.657947485813	-0.000220733642578125	-0.413421630859375
203.902088485197	-0.000229095458984375	-0.415252685546875
204.14622948458	-0.00023834228515625	-0.418212890625
204.390370483964	-0.000248626708984375	-0.4193115234375
204.634511483348	-0.000260162353515625	-0.421722412109375
204.878652482731	-0.000272979736328125	-0.425506591796875
205.122793482115	-0.00028741455078125	-0.426544189453125
205.366934481498	-0.000303558349609375	-0.428985595703125
205.611075480882	-0.00032171630859375	-0.4329833984375
205.855216480266	-0.000342071533203125	-0.434417724609375
206.099357479649	-0.00036492919921875	-0.437469482421875
206.343498479033	-0.000390472412109375	-0.440460205078125
206.587639478416	-0.000419036865234375	-0.4423828125
206.8317804778	-0.00045086669921875	-0.44415283203125
207.075921477184	-0.000486114501953125	-0.446533203125
207.320062476567	-0.00052520751953125	-0.4503173828125
207.564203475951	-0.00056793212890625	-0.452239990234375
207.808344475334	-0.0006146240234375	-0.45416259765625
208.052485474718	-0.000665283203125	-0.457489013671875
208.296626474102	-0.0007196044921875	-0.4591064453125
208.540767473485	-0.000777587890625	-0.461212158203125
208.784908472869	-0.000838623046875	-0.464752197265625
209.029049472252	-0.00090240478515625	-0.46697998046875
209.273190471636	-0.00096832275390625	-0.469024658203125
209.51733147102	-0.001036376953125	-0.4708251953125
209.761472470403	-0.00110595703125	-0.474029541015625
210.005613469787	-0.0011761474609375	-0.47576904296875
210.24975446917	-0.00124725341796875	-0.47943115234375
210.493895468554	-0.001318359375	-0.480621337890625
210.738036467938	-0.0013897705078125	-0.4833984375
210.982177467321	-0.0014605712890625	-0.48553466796875
211.226318466705	-0.00153106689453125	-0.487823486328125
211.470459466088	-0.0016009521484375	-0.490631103515625
211.714600465472	-0.001669921875	-0.49334716796875
211.958741464856	-0.00173797607421875	-0.496063232421875
212.202882464239	-0.00180511474609375	-0.49822998046875
212.447023463623	-0.00187103271484375	-0.501007080078125
212.691164463006	-0.00193572998046875	-0.50262451171875
212.93530546239	-0.00199920654296875	-0.505615234375
213.179446461774	-0.0020611572265625	-0.507904052734375
213.423587461157	-0.00212188720703125	-0.509979248046875
213.667728460541	-0.002181396484375	-0.5128173828125
213.911869459924	-0.00223907470703125	-0.514495849609375
214.156010459308	-0.00229583740234375	-0.516876220703125
214.400151458692	-0.00235076904296875	-0.519927978515625
214.644292458075	-0.00240447998046875	-0.52191162109375
214.888433457459	-0.00245697021484375	-0.52423095703125
215.132574456842	-0.0025079345703125	-0.527435302734375
215.376715456226	-0.0025579833984375	-0.529571533203125
215.62085645561	-0.0026068115234375	-0.53155517578125
215.864997454993	-0.0026544189453125	-0.534088134765625
216.109138454377	-0.0027008056640625	-0.536224365234375
216.35327945376	-0.0027459716796875	-0.5386962890625
216.597420453144	-0.00279052734375	-0.5416259765625
216.841561452528	-0.0028338623046875	-0.544342041015625
217.085702451911	-0.00287628173828125	-0.547088623046875
217.329843451295	-0.00291778564453125	-0.549163818359375
217.573984450678	-0.0029583740234375	-0.551513671875
217.818125450062	-0.002998046875	-0.553375244140625
218.062266449446	-0.00303680419921875	-0.557037353515625
218.306407448829	-0.003074951171875	-0.55804443359375
218.550548448213	-0.0031121826171875	-0.5618896484375
218.794689447597	-0.00314849853515625	-0.56304931640625
219.03883044698	-0.0031842041015625	-0.565460205078125
219.282971446364	-0.00321868896484375	-0.568328857421875
219.527112445747	-0.0032525634765625	-0.571533203125
219.771253445131	-0.00328521728515625	-0.572967529296875
220.015394444515	-0.00331756591796875	-0.5758056640625
220.259535443898	-0.00334869384765625	-0.577667236328125
220.503676443282	-0.00337890625	-0.58026123046875
220.747817442665	-0.00340850830078125	-0.583740234375
220.991958442049	-0.0034368896484375	-0.586212158203125
221.236099441433	-0.00346466064453125	-0.5877685546875
221.480240440816	-0.00349151611328125	-0.59039306640625
221.7243814402	-0.0035174560546875	-0.593475341796875
221.968522439583	-0.00354278564453125	-0.595428466796875
222.212663438967	-0.00356689453125	-0.597076416015625
222.456804438351	-0.00359039306640625	-0.59942626953125
222.700945437734	-0.00361297607421875	-0.6019287109375
222.945086437118	-0.00363494873046875	-0.60516357421875
223.189227436501	-0.00365570068359375	-0.608001708984375
223.433368435885	-0.00367584228515625	-0.60943603515625
223.677509435269	-0.003695068359375	-0.611724853515625
223.921650434652	-0.0037139892578125	-0.61407470703125
224.165791434036	-0.003731689453125	-0.61676025390625
224.409932433419	-0.00374908447265625	-0.62030029296875
224.654073432803	-0.00376556396484375	-0.62188720703125
224.898214432187	-0.00378143310546875	-0.624725341796875
225.14235543157	-0.00379669189453125	-0.62640380859375
225.386496430954	-0.00381134033203125	-0.628662109375
225.630637430337	-0.0038250732421875	-0.632293701171875
225.874778429721	-0.00383880615234375	-0.634002685546875
226.118919429105	-0.0038519287109375	-0.63592529296875
226.363060428488	-0.00386444091796875	-0.638824462890625
226.607201427872	-0.00387664794921875	-0.64154052734375
226.851342427255	-0.00388885498046875	-0.643310546875
227.095483426639	-0.00390045166015625	-0.646575927734375
227.339624426023	-0.0039117431640625	-0.648895263671875
227.583765425406	-0.0039227294921875	-0.65130615234375
227.82790642479	-0.0039337158203125	-0.654266357421875
228.072047424173	-0.00394439697265625	-0.6566162109375
228.316188423557	-0.003955078125	-0.657928466796875
228.560329422941	-0.00396575927734375	-0.66168212890625
228.804470422324	-0.0039764404296875	-0.663726806640625
229.048611421708	-0.00398712158203125	-0.665252685546875
229.292752421091	-0.00399749755859375	-0.668487548828125
229.536893420475	-0.00400848388671875	-0.6715087890625
229.781034419859	-0.0040191650390625	-0.67327880859375
230.025175419242	-0.0040301513671875	-0.67596435546875
230.269316418626	-0.00404144287109375	-0.67816162109375
230.513457418009	-0.004052734375	-0.681182861328125
230.757598417393	-0.0040643310546875	-0.68243408203125
231.001739416777	-0.004075927734375	-0.68585205078125
231.24588041616	-0.004088134765625	-0.687469482421875
231.490021415544	-0.00410003662109375	-0.69085693359375
231.734162414927	-0.004112548828125	-0.692291259765625
231.978303414311	-0.00412506103515625	-0.695770263671875
232.222444413695	-0.0041375732421875	-0.697662353515625
232.466585413078	-0.00415069580078125	-0.699493408203125
232.710726412462	-0.004163818359375	-0.702606201171875
232.954867411845	-0.0041766357421875	-0.704498291015625
233.199008411229	-0.00419036865234375	-0.70770263671875
233.443149410613	-0.0042034912109375	-0.710296630859375
233.687290409996	-0.00421722412109375	-0.71282958984375
233.93143140938	-0.00423095703125	-0.7138671875
234.175572408764	-0.00424468994140625	-0.71649169921875
234.419713408147	-0.0042584228515625	-0.720062255859375
234.663854407531	-0.00427215576171875	-0.72149658203125
234.907995406914	-0.004285888671875	-0.723602294921875
235.152136406298	-0.00429962158203125	-0.7274169921875
235.396277405682	-0.00431304931640625	-0.728515625
235.640418405065	-0.0043267822265625	-0.731109619140625
235.884559404449	-0.0043402099609375	-0.73468017578125
236.128700403832	-0.00435333251953125	-0.736602783203125
236.372841403216	-0.004366455078125	-0.7396240234375
236.6169824026	-0.0043792724609375	-0.741119384765625
236.861123401983	-0.00439239501953125	-0.743865966796875
237.105264401367	-0.0044049072265625	-0.745758056640625
237.34940540075	-0.00441741943359375	-0.749237060546875
237.593546400134	-0.00442962646484375	-0.7513427734375
237.837687399518	-0.00444183349609375	-0.755615234375
238.081828398901	-0.00445343017578125	-0.75836181640625
238.325969398285	-0.00446502685546875	-0.75927734375
238.570110397668	-0.00447662353515625	-0.76324462890625
238.814251397052	-0.00448760986328125	-0.7635498046875
239.058392396436	-0.004498291015625	-0.76812744140625
239.302533395819	-0.00450897216796875	-0.770263671875
239.546674395203	-0.0045196533203125	-0.77239990234375
239.790815394586	-0.0045294189453125	-0.7733154296875
240.03495639397	-0.0045391845703125	-0.7757568359375
240.279097393354	-0.0045489501953125	-0.77880859375
240.523238392737	-0.00455810546875	-0.78216552734375
240.767379392121	-0.00456695556640625	-0.7843017578125
241.011520391504	-0.00457550048828125	-0.787353515625
241.255661390888	-0.00458404541015625	-0.79010009765625
241.499802390272	-0.00459228515625	-0.791015625
241.743943389655	-0.0046002197265625	-0.79437255859375
241.988084389039	-0.00460784912109375	-0.79620361328125
242.232225388422	-0.004615478515625	-0.79986572265625
242.476366387806	-0.00462249755859375	-0.80078125
242.72050738719	-0.00462921142578125	-0.8050537109375
242.964648386573	-0.00463623046875	-0.80596923828125
243.208789385957	-0.00464263916015625	-0.80718994140625
243.45293038534	-0.0046490478515625	-0.81146240234375
243.697071384724	-0.004654541015625	-0.81298828125
243.941212384108	-0.00466033935546875	-0.816650390625
244.185353383491	-0.0046661376953125	-0.8184814453125
244.429494382875	-0.00467132568359375	-0.82122802734375
244.673635382258	-0.00467620849609375	-0.82366943359375
244.917776381642	-0.00468109130859375	-0.8251953125
245.161917381026	-0.0046856689453125	-0.82763671875
245.406058380409	-0.00468994140625	-0.8306884765625
245.650199379793	-0.0046942138671875	-0.83282470703125
245.894340379176	-0.00469818115234375	-0.83465576171875
246.13848137856	-0.0047021484375	-0.83831787109375
246.382622377944	-0.00470550537109375	-0.83953857421875
246.626763377327	-0.0047088623046875	-0.84228515625
246.870904376711	-0.0047119140625	-0.845947265625
247.115045376094	-0.00471466064453125	-0.8465576171875
247.359186375478	-0.0047174072265625	-0.850830078125
247.603327374862	-0.00472015380859375	-0.853271484375
247.847468374245	-0.0047222900390625	-0.85357666015625
248.091609373629	-0.00472442626953125	-0.85784912109375
248.335750373013	-0.0047265625	-0.860595703125
248.579891372396	-0.00472808837890625	-0.86273193359375
248.82403237178	-0.00472930908203125	-0.8648681640625
249.068173371163	-0.00473052978515625	-0.867919921875
249.312314370547	-0.00473114013671875	-0.869140625
249.556455369931	-0.00473175048828125	-0.87127685546875
249.800596369314	-0.0047320556640625	-0.87432861328125
250.044737368698	-0.0047320556640625	-0.8770751953125
250.288878368081	-0.00473175048828125	-0.87921142578125
250.533019367465	-0.00473114013671875	-0.88134765625
250.777160366849	-0.004730224609375	-0.885009765625
251.021301366232	-0.00472869873046875	-0.8868408203125
251.265442365616	-0.0047271728515625	-0.89019775390625
251.509583364999	-0.00472503662109375	-0.8917236328125
251.753724364383	-0.0047222900390625	-0.89508056640625
251.997865363767	-0.00471954345703125	-0.89569091796875
252.24200636315	-0.00471588134765625	-0.899658203125
252.486147362534	-0.0047119140625	-0.90087890625
252.730288361917	-0.0047076416015625	-0.9051513671875
252.974429361301	-0.0047027587890625	-0.906982421875
253.218570360685	-0.004697265625	-0.90911865234375
253.462711360068	-0.00469146728515625	-0.911865234375
253.706852359452	-0.00468536376953125	-0.91400146484375
253.950993358835	-0.0046783447265625	-0.91461181640625
254.195134358219	-0.0046710205078125	-0.9185791015625
254.439275357603	-0.0046630859375	-0.92132568359375
254.683416356986	-0.00465423583984375	-0.92315673828125
254.92755735637	-0.00464508056640625	-0.92529296875
255.171698355753	-0.0046356201171875	-0.92864990234375
255.415839355137	-0.004625244140625	-0.93170166015625
255.659980354521	-0.00461456298828125	-0.9326171875
255.904121353904	-0.0046038818359375	-0.936279296875
256.148262353288	-0.0045928955078125	-0.93719482421875
256.392403352671	-0.00458160400390625	-0.94085693359375
256.636544352055	-0.0045703125	-0.943603515625
256.880685351439	-0.00455902099609375	-0.946044921875
257.124826350822	-0.00454864501953125	-0.9466552734375
257.368967350206	-0.0045391845703125	-0.950927734375
257.613108349589	-0.0045306396484375	-0.95367431640625
257.857249348973	-0.00452392578125	-0.9539794921875
258.101390348357	-0.00451934814453125	-0.95794677734375
258.34553134774	-0.0045166015625	-0.96038818359375
258.589672347124	-0.0045166015625	-0.963134765625
258.833813346507	-0.00451934814453125	-0.96466064453125
259.077954345891	-0.004525146484375	-0.96832275390625
259.322095345275	-0.00453369140625	-0.9698486328125
259.566236344658	-0.004544677734375	-0.9710693359375
259.810377344042	-0.00455841064453125	-0.97503662109375
260.054518343425	-0.00457427978515625	-0.977783203125
260.298659342809	-0.00459228515625	-0.97991943359375
260.542800342193	-0.00461181640625	-0.98114013671875
260.786941341576	-0.00463226318359375	-0.985107421875
261.03108234096	-0.00465362548828125	-0.9869384765625
261.275223340343	-0.00467437744140625	-0.9881591796875
261.519364339727	-0.0046954345703125	-0.9930419921875
261.763505339111	-0.0047149658203125	-0.99334716796875
262.007646338494	-0.004732666015625	-0.9979248046875
262.251787337878	-0.0047479248046875	-0.99945068359375
262.495928337261	-0.00476409912109375	-1.0009765625
