Time (s)	WE(1).Potential (V)
3726.08808359253	0.0238067626953125
3727.08808359001	0.0354766845703125
3728.08808358748	0.04642333984375
3729.08808358496	0.0567626953125
3730.08808358243	0.066558837890625
3731.08808357991	0.075836181640625
3732.08808357738	0.084625244140625
3733.08808357486	0.09295654296875
3734.08808357233	0.100860595703125
3735.08808356981	0.108367919921875
3736.08808356728	0.115509033203125
3737.08808356476	0.122283935546875
3738.08808356223	0.12872314453125
3739.08808355971	0.134857177734375
3740.08808355719	0.140716552734375
3741.08808355466	0.14630126953125
3742.08808355214	0.151611328125
3743.08808354961	0.15667724609375
3744.08808354709	0.161529541015625
3745.08808354456	0.166168212890625
3746.08808354204	0.170623779296875
3747.08808353951	0.174896240234375
3748.08808353699	0.17901611328125
3749.08808353446	0.18292236328125
3750.08808353194	0.186737060546875
3751.08808352941	0.190399169921875
3752.08808352689	0.193939208984375
3753.08808352436	0.197357177734375
3754.08808352184	0.200653076171875
3755.08808351931	0.203857421875
3756.08808351679	0.20697021484375
3757.08808351426	0.209991455078125
3758.08808351174	0.21295166015625
3759.08808350921	0.2158203125
3760.08808350669	0.2186279296875
3761.08808350417	0.221343994140625
3762.08808350164	0.224029541015625
3763.08808349912	0.226654052734375
3764.08808349659	0.229217529296875
3765.08808349407	0.23175048828125
3766.08808349154	0.2342529296875
3767.08808348902	0.2366943359375
3768.08808348649	0.2391357421875
3769.08808348397	0.24151611328125
3770.08808348144	0.243865966796875
3771.08808347892	0.246185302734375
3772.08808347639	0.248504638671875
3773.08808347387	0.25079345703125
3774.08808347134	0.2530517578125
3775.08808346882	0.25531005859375
3776.08808346629	0.257537841796875
3777.08808346377	0.259765625
3778.08808346124	0.261993408203125
3779.08808345872	0.26422119140625
3780.08808345619	0.266448974609375
3781.08808345367	0.2686767578125
3782.08808345115	0.270904541015625
3783.08808344862	0.27313232421875
3784.0880834461	0.275390625
3785.08808344357	0.27764892578125
3786.08808344105	0.2799072265625
3787.08808343852	0.282196044921875
3788.088083436	0.28448486328125
3789.08808343347	0.28680419921875
3790.08808343095	0.289154052734375
3791.08808342842	0.29150390625
3792.0880834259	0.293914794921875
3793.08808342337	0.296356201171875
3794.08808342085	0.298828125
3795.08808341832	0.30133056640625
3796.0880834158	0.303863525390625
3797.08808341327	0.306427001953125
3798.08808341075	0.309051513671875
3799.08808340822	0.31170654296875
3800.0880834057	0.314422607421875
3801.08808340318	0.31719970703125
3802.08808340065	0.32000732421875
3803.08808339813	0.3228759765625
3804.0880833956	0.325836181640625
3805.08808339308	0.328826904296875
3806.08808339055	0.331878662109375
3807.08808338803	0.334991455078125
3808.0880833855	0.338165283203125
3809.08808338298	0.341400146484375
3810.08808338045	0.34466552734375
3811.08808337793	0.3480224609375
3812.0880833754	0.351409912109375
3813.08808337288	0.3548583984375
3814.08808337035	0.35833740234375
3815.08808336783	0.361846923828125
3816.0880833653	0.365386962890625
3817.08808336278	0.36895751953125
3818.08808336025	0.37255859375
3819.08808335773	0.37615966796875
3820.0880833552	0.379791259765625
3821.08808335268	0.383453369140625
3822.08808335016	0.3870849609375
3823.08808334763	0.3907470703125
3824.08808334511	0.3944091796875
3825.08808334258	0.398101806640625
3826.08808334006	0.401763916015625
3827.08808333753	0.40545654296875
3828.08808333501	0.409149169921875
3829.08808333248	0.412872314453125
3830.08808332996	0.416595458984375
3831.08808332743	0.42034912109375
3832.08808332491	0.424102783203125
3833.08808332238	0.4278564453125
3834.08808331986	0.431640625
3835.08808331733	0.435455322265625
3836.08808331481	0.43927001953125
3837.08808331228	0.443115234375
3838.08808330976	0.446990966796875
3839.08808330723	0.45086669921875
3840.08808330471	0.454742431640625
3841.08808330218	0.458648681640625
3842.08808329966	0.46258544921875
3843.08808329714	0.46649169921875
3844.08808329461	0.470428466796875
3845.08808329209	0.474334716796875
3846.08808328956	0.478271484375
3847.08808328704	0.482147216796875
3848.08808328451	0.485992431640625
3849.08808328199	0.48980712890625
3850.08808327946	0.493560791015625
3851.08808327694	0.497283935546875
3852.08808327441	0.5010986328125
3853.08808327189	0.5047607421875
3854.08808326936	0.50811767578125
3855.08808326684	0.511474609375
3856.08808326431	0.51513671875
3857.08808326179	0.5181884765625
3858.08808325926	0.521240234375
3859.08808325674	0.52398681640625
3860.08808325421	0.52642822265625
3861.08808325169	0.5291748046875
3862.08808324916	0.5316162109375
3863.08808324664	0.53436279296875
3864.08808324412	0.5364990234375
3865.08808324159	0.5389404296875
3866.08808323907	0.5413818359375
3867.08808323654	0.54290771484375
3868.08808323402	0.54443359375
3869.08808323149	0.545654296875
3870.08808322897	0.546875
3871.08808322644	0.548095703125
3872.08808322392	0.54931640625
3873.08808322139	0.55023193359375
3874.08808321887	0.55145263671875
3875.08808321634	0.5523681640625
3876.08808321382	0.55328369140625
3877.08808321129	0.55419921875
3878.08808320877	0.5548095703125
3879.08808320624	0.55572509765625
3880.08808320372	0.556640625
3881.08808320119	0.5584716796875
3882.08808319867	0.55999755859375
3883.08808319614	0.56121826171875
3884.08808319362	0.56243896484375
3885.0880831911	0.56304931640625
3886.08808318857	0.56396484375
3887.08808318605	0.56488037109375
3888.08808318352	0.56549072265625
3889.088083181	0.56671142578125
3890.08808317847	0.56793212890625
3891.08808317595	0.56854248046875
3892.08808317342	0.56854248046875
3893.0880831709	0.5682373046875
3894.08808316837	0.56793212890625
3895.08808316585	0.56793212890625
3896.08808316332	0.567626953125
3897.0880831608	0.567626953125
3898.08808315827	0.567626953125
3899.08808315575	0.567626953125
3900.08808315322	0.567626953125
3901.0880831507	0.56793212890625
3902.08808314817	0.56793212890625
3903.08808314565	0.56793212890625
3904.08808314313	0.5682373046875
3905.0880831406	0.5682373046875
