Time (s)	WE(1).Potential (V)
2.05822499480348	0.50323486328125
3.05822499227872	0.50384521484375
4.05822498975397	0.504150390625
5.05822498722921	0.50445556640625
6.05822498470445	0.5047607421875
7.05822498217969	0.50537109375
8.05822497965494	0.50567626953125
9.05822497713018	0.5059814453125
10.0582249746054	0.50628662109375
11.0582249720807	0.506591796875
12.0582249695559	0.5072021484375
13.0582249670312	0.50750732421875
14.0582249645064	0.5078125
15.0582249619816	0.50811767578125
16.0582249594569	0.5084228515625
17.0582249569321	0.50872802734375
18.0582249544074	0.509033203125
19.0582249518826	0.5096435546875
20.0582249493579	0.50994873046875
21.0582249468331	0.51025390625
22.0582249443083	0.51055908203125
23.0582249417836	0.5108642578125
24.0582249392588	0.51116943359375
25.0582249367341	0.511474609375
26.0582249342093	0.51177978515625
27.0582249316845	0.5120849609375
28.0582249291598	0.51239013671875
29.058224926635	0.5126953125
30.0582249241103	0.51300048828125
31.0582249215855	0.5133056640625
32.0582249190608	0.51361083984375
33.058224916536	0.513916015625
34.0582249140112	0.51422119140625
35.0582249114865	0.5145263671875
36.0582249089617	0.51483154296875
37.058224906437	0.51513671875
38.0582249039122	0.51544189453125
39.0582249013875	0.51544189453125
40.0582248988627	0.5157470703125
41.0582248963379	0.51605224609375
42.0582248938132	0.516357421875
43.0582248912884	0.51666259765625
44.0582248887637	0.5169677734375
45.0582248862389	0.51727294921875
46.0582248837142	0.517578125
47.0582248811894	0.51788330078125
48.0582248786646	0.5181884765625
49.0582248761399	0.51849365234375
50.0582248736151	0.51849365234375
51.0582248710904	0.518798828125
52.0582248685656	0.51910400390625
53.0582248660409	0.5194091796875
54.0582248635161	0.51971435546875
55.0582248609913	0.52001953125
56.0582248584666	0.52001953125
57.0582248559418	0.52032470703125
58.0582248534171	0.5206298828125
59.0582248508923	0.52093505859375
60.0582248483676	0.521240234375
61.0582248458428	0.52154541015625
62.058224843318	0.52154541015625
63.0582248407933	0.5218505859375
64.0582248382685	0.52215576171875
65.0582248357438	0.5224609375
66.058224833219	0.52276611328125
67.0582248306943	0.5230712890625
68.0582248281695	0.52337646484375
69.0582248256447	0.523681640625
70.05822482312	0.52398681640625
71.0582248205952	0.52398681640625
72.0582248180705	0.5242919921875
73.0582248155457	0.52459716796875
74.058224813021	0.52490234375
75.0582248104962	0.52520751953125
76.0582248079714	0.5255126953125
77.0582248054467	0.5255126953125
78.0582248029219	0.52581787109375
79.0582248003972	0.526123046875
80.0582247978724	0.52642822265625
81.0582247953477	0.5267333984375
82.0582247928229	0.52703857421875
83.0582247902981	0.52703857421875
84.0582247877734	0.52734375
85.0582247852486	0.52764892578125
86.0582247827239	0.5279541015625
87.0582247801991	0.52825927734375
88.0582247776744	0.52825927734375
89.0582247751496	0.528564453125
90.0582247726248	0.52886962890625
91.0582247701001	0.5291748046875
92.0582247675753	0.5291748046875
93.0582247650506	0.52947998046875
94.0582247625258	0.52978515625
95.0582247600011	0.53009033203125
96.0582247574763	0.53009033203125
97.0582247549515	0.5303955078125
98.0582247524268	0.53070068359375
99.058224749902	0.53070068359375
100.058224747377	0.531005859375
101.058224744853	0.53131103515625
102.058224742328	0.53131103515625
103.058224739803	0.5316162109375
104.058224737278	0.53192138671875
105.058224734753	0.53192138671875
106.058224732229	0.53192138671875
107.058224729704	0.5322265625
108.058224727179	0.5322265625
109.058224724654	0.53253173828125
110.05822472213	0.5328369140625
111.058224719605	0.53314208984375
112.05822471708	0.53314208984375
113.058224714555	0.533447265625
114.058224712031	0.53375244140625
115.058224709506	0.53375244140625
116.058224706981	0.5340576171875
117.058224704456	0.53436279296875
118.058224701932	0.53466796875
119.058224699407	0.53466796875
120.058224696882	0.53497314453125
121.058224694357	0.5352783203125
122.058224691833	0.53558349609375
123.058224689308	0.53558349609375
124.058224686783	0.535888671875
125.058224684258	0.53619384765625
126.058224681734	0.5364990234375
127.058224679209	0.5364990234375
128.058224676684	0.53680419921875
129.058224674159	0.537109375
130.058224671635	0.53741455078125
131.05822466911	0.53741455078125
132.058224666585	0.5377197265625
133.05822466406	0.53802490234375
134.058224661536	0.538330078125
135.058224659011	0.538330078125
136.058224656486	0.53863525390625
137.058224653961	0.5389404296875
138.058224651436	0.5389404296875
139.058224648912	0.53924560546875
140.058224646387	0.53955078125
141.058224643862	0.53955078125
142.058224641337	0.53985595703125
143.058224638813	0.5401611328125
144.058224636288	0.5401611328125
145.058224633763	0.54046630859375
146.058224631238	0.540771484375
147.058224628714	0.540771484375
148.058224626189	0.54107666015625
149.058224623664	0.5413818359375
150.058224621139	0.5413818359375
151.058224618615	0.54168701171875
152.05822461609	0.5419921875
153.058224613565	0.5419921875
154.05822461104	0.54229736328125
155.058224608516	0.5426025390625
156.058224605991	0.5426025390625
157.058224603466	0.54290771484375
158.058224600941	0.543212890625
159.058224598417	0.543212890625
160.058224595892	0.54351806640625
161.058224593367	0.54351806640625
162.058224590842	0.5438232421875
163.058224588318	0.54412841796875
164.058224585793	0.54412841796875
165.058224583268	0.54443359375
166.058224580743	0.54443359375
167.058224578219	0.54473876953125
168.058224575694	0.5450439453125
169.058224573169	0.5450439453125
170.058224570644	0.54534912109375
171.058224568119	0.54534912109375
172.058224565595	0.545654296875
173.05822456307	0.54595947265625
174.058224560545	0.54595947265625
175.05822455802	0.5462646484375
176.058224555496	0.5462646484375
177.058224552971	0.54656982421875
178.058224550446	0.54656982421875
179.058224547921	0.546875
180.058224545397	0.54718017578125
181.058224542872	0.54718017578125
