Time (s)	WE(1).Potential (V)	External(1).External 2 (V)
3.21721499187731	0.5859375	3.096923828125
4.21721498935256	0.5859375	3.10150146484375
5.2172149868278	0.5859375	3.09814453125
6.21721498430304	0.5859375	3.09967041015625
7.21721498177828	0.5859375	3.1011962890625
8.21721497925353	0.5859375	3.10272216796875
9.21721497672877	0.5859375	3.099365234375
10.217214974204	0.5859375	3.10089111328125
11.2172149716793	0.5859375	3.1005859375
12.2172149691545	0.58624267578125	3.1005859375
13.2172149666297	0.58624267578125	3.10089111328125
14.217214964105	0.58624267578125	3.10302734375
15.2172149615802	0.58624267578125	3.0975341796875
16.2172149590555	0.58624267578125	3.10272216796875
17.2172149565307	0.58624267578125	3.10455322265625
18.217214954006	0.58624267578125	3.1011962890625
19.2172149514812	0.58624267578125	3.101806640625
20.2172149489564	0.58624267578125	3.0859375
21.2172149464317	0.58624267578125	3.10211181640625
22.2172149439069	0.58624267578125	3.099365234375
23.2172149413822	0.58624267578125	0.08795166015625
24.2172149388574	0.58624267578125	0.088409423828125
25.2172149363327	0.58624267578125	0.09051513671875
26.2172149338079	0.58624267578125	0.085296630859375
27.2172149312831	0.58624267578125	0.090484619140625
28.2172149287584	0.58624267578125	0.090728759765625
29.2172149262336	0.58624267578125	0.08990478515625
30.2172149237089	0.58624267578125	0.088287353515625
31.2172149211841	0.58624267578125	0.08880615234375
32.2172149186594	0.5865478515625	0.09002685546875
33.2172149161346	0.5865478515625	0.089874267578125
34.2172149136098	0.5865478515625	0.09136962890625
35.2172149110851	0.5865478515625	0.088348388671875
36.2172149085603	0.5865478515625	0.090087890625
37.2172149060356	0.5865478515625	0.090179443359375
38.2172149035108	0.5865478515625	0.089599609375
39.2172149009861	0.5865478515625	0.08740234375
40.2172148984613	0.5865478515625	0.088897705078125
41.2172148959365	0.5865478515625	0.0880126953125
42.2172148934118	0.5865478515625	0.08538818359375
43.217214890887	0.5865478515625	0.08807373046875
44.2172148883623	0.5865478515625	0.090484619140625
45.2172148858375	0.5865478515625	0.083892822265625
46.2172148833127	0.5865478515625	0.611572265625
47.217214880788	0.5865478515625	3.0999755859375
48.2172148782632	0.5865478515625	3.09783935546875
49.2172148757385	0.5865478515625	3.10211181640625
50.2172148732137	0.5865478515625	3.10211181640625
51.217214870689	0.5865478515625	3.101806640625
52.2172148681642	0.5865478515625	3.0987548828125
53.2172148656394	0.5865478515625	3.10333251953125
54.2172148631147	0.5865478515625	3.101806640625
55.2172148605899	0.5865478515625	3.101806640625
56.2172148580652	0.5865478515625	3.10089111328125
57.2172148555404	0.58685302734375	3.09967041015625
58.2172148530157	0.58685302734375	3.10089111328125
59.2172148504909	0.58685302734375	3.0999755859375
60.2172148479661	0.58685302734375	3.101806640625
61.2172148454414	0.58685302734375	3.10272216796875
62.2172148429166	0.58685302734375	3.10089111328125
63.2172148403919	0.58685302734375	3.10302734375
64.2172148378671	0.58685302734375	3.09906005859375
65.2172148353424	0.58685302734375	3.10150146484375
66.2172148328176	0.58685302734375	3.10394287109375
67.2172148302928	0.58685302734375	3.10272216796875
68.2172148277681	0.58685302734375	3.10028076171875
69.2172148252433	0.58685302734375	3.10333251953125
70.2172148227186	0.58685302734375	3.1005859375
71.2172148201938	0.58685302734375	3.10333251953125
72.2172148176691	0.58685302734375	3.09722900390625
73.2172148151443	0.58685302734375	3.10302734375
74.2172148126195	0.58685302734375	3.101806640625
75.2172148100948	0.58685302734375	3.10211181640625
76.21721480757	0.58685302734375	3.09783935546875
77.2172148050453	0.58685302734375	3.10272216796875
78.2172148025205	0.58685302734375	3.09814453125
79.2172147999958	0.58685302734375	3.101806640625
80.217214797471	0.58685302734375	3.1024169921875
81.2172147949462	0.58685302734375	3.1005859375
82.2172147924215	0.58685302734375	3.09967041015625
83.2172147898967	0.58685302734375	3.1011962890625
84.217214787372	0.58685302734375	3.10302734375
85.2172147848472	0.58685302734375	3.10028076171875
86.2172147823225	0.58685302734375	3.09906005859375
87.2172147797977	0.58685302734375	3.1011962890625
88.2172147772729	0.58685302734375	3.10150146484375
89.2172147747482	0.58685302734375	3.10302734375
90.2172147722234	0.58685302734375	3.09967041015625
91.2172147696987	0.58685302734375	3.10150146484375
92.2172147671739	0.58685302734375	3.10333251953125
93.2172147646492	0.58685302734375	3.1011962890625
94.2172147621244	0.58685302734375	3.10089111328125
95.2172147595996	0.58685302734375	3.09906005859375
96.2172147570749	0.58685302734375	3.1024169921875
97.2172147545501	0.58685302734375	3.1036376953125
98.2172147520254	0.58685302734375	3.10333251953125
99.2172147495006	0.58685302734375	3.09478759765625
100.217214746976	0.58685302734375	3.10333251953125
101.217214744451	0.58685302734375	3.099365234375
102.217214741926	0.58685302734375	3.0987548828125
103.217214739402	0.587158203125	3.10089111328125
104.217214736877	0.587158203125	3.09844970703125
105.217214734352	0.58685302734375	3.1005859375
106.217214731827	0.58685302734375	3.10272216796875
107.217214729303	0.58685302734375	3.09814453125
108.217214726778	0.58685302734375	3.0987548828125
109.217214724253	0.587158203125	3.10150146484375
110.217214721728	0.587158203125	3.1005859375
111.217214719204	0.587158203125	3.1024169921875
112.217214716679	0.58685302734375	3.09722900390625
113.217214714154	0.587158203125	3.10211181640625
114.217214711629	0.587158203125	3.09539794921875
115.217214709105	0.58685302734375	3.10150146484375
116.21721470658	0.587158203125	3.10333251953125
117.217214704055	0.587158203125	3.1011962890625
118.21721470153	0.58685302734375	3.10028076171875
119.217214699005	0.587158203125	3.10333251953125
120.217214696481	0.587158203125	3.101806640625
121.217214693956	0.587158203125	3.101806640625
122.217214691431	0.587158203125	3.10028076171875
123.217214688906	0.58685302734375	3.10302734375
124.217214686382	0.58685302734375	3.1005859375
125.217214683857	0.58685302734375	3.0975341796875
126.217214681332	0.587158203125	3.10211181640625
127.217214678807	0.58685302734375	3.09844970703125
128.217214676283	0.58685302734375	3.10150146484375
129.217214673758	0.58685302734375	3.0987548828125
130.217214671233	0.58685302734375	3.10272216796875
131.217214668708	0.58685302734375	3.1011962890625
132.217214666184	0.58685302734375	3.07769775390625
133.217214663659	0.58685302734375	3.09844970703125
134.217214661134	0.58685302734375	3.1005859375
135.217214658609	0.58685302734375	3.10211181640625
136.217214656085	0.58685302734375	3.0999755859375
137.21721465356	0.58685302734375	3.10211181640625
138.217214651035	0.58685302734375	3.0987548828125
139.21721464851	0.58685302734375	3.0987548828125
140.217214645986	0.58685302734375	3.101806640625
141.217214643461	0.58685302734375	3.10272216796875
142.217214640936	0.58685302734375	3.10028076171875
143.217214638411	0.58685302734375	3.099365234375
144.217214635887	0.58685302734375	3.08258056640625
145.217214633362	0.58685302734375	3.1005859375
146.217214630837	0.58685302734375	3.08197021484375
147.217214628312	0.58685302734375	3.08074951171875
148.217214625788	0.58685302734375	3.09814453125
149.217214623263	0.58685302734375	3.10302734375
150.217214620738	0.58685302734375	3.10028076171875
151.217214618213	0.58685302734375	3.101806640625
152.217214615688	0.58685302734375	3.0963134765625
153.217214613164	0.58685302734375	3.082275390625
154.217214610639	0.58685302734375	3.08074951171875
155.217214608114	0.58685302734375	3.0816650390625
156.217214605589	0.58685302734375	3.08319091796875
157.217214603065	0.58685302734375	3.08013916015625
158.21721460054	0.58685302734375	3.077392578125
159.217214598015	0.58685302734375	3.08013916015625
160.21721459549	0.58685302734375	3.08258056640625
161.217214592966	0.58685302734375	3.0816650390625
162.217214590441	0.58685302734375	3.07861328125
163.217214587916	0.58685302734375	3.0810546875
164.217214585391	0.58685302734375	3.082275390625
165.217214582867	0.58685302734375	3.0987548828125
166.217214580342	0.58685302734375	3.08441162109375
167.217214577817	0.58685302734375	3.0828857421875
168.217214575292	0.58685302734375	3.08197021484375
169.217214572768	0.58685302734375	3.08013916015625
170.217214570243	0.58685302734375	3.08349609375
171.217214567718	0.58685302734375	3.08380126953125
172.217214565193	0.58685302734375	3.08013916015625
173.217214562669	0.58685302734375	3.0816650390625
174.217214560144	0.58685302734375	3.08197021484375
175.217214557619	0.58685302734375	3.08319091796875
176.217214555094	0.58685302734375	3.08258056640625
177.21721455257	0.58685302734375	3.08197021484375
178.217214550045	0.58685302734375	3.08074951171875
179.21721454752	0.58685302734375	3.0828857421875
180.217214544995	0.58685302734375	3.08013916015625
181.217214542471	0.58685302734375	3.08258056640625
182.217214539946	0.58685302734375	3.0816650390625
