Time (s)	WE(1).Potential (V)	External(1).External 2 (V)
10339.4128668955	0.27093505859375	2.978515625
10340.412866893	0.268218994140625	2.97821044921875
10341.4128668904	0.26654052734375	2.978515625
10342.4128668879	0.2650146484375	2.9779052734375
10343.4128668854	0.263641357421875	2.97882080078125
10344.4128668829	0.26239013671875	2.9779052734375
10345.4128668803	0.261260986328125	2.97882080078125
10346.4128668778	0.26025390625	2.978515625
10347.4128668753	0.259368896484375	2.97882080078125
10348.4128668728	0.258544921875	2.9791259765625
10349.4128668702	0.257843017578125	2.9791259765625
10350.4128668677	0.2572021484375	2.97882080078125
10351.4128668652	0.256622314453125	2.9791259765625
10352.4128668627	0.256103515625	2.978515625
10353.4128668601	0.255615234375	2.9791259765625
10354.4128668576	0.255157470703125	2.97821044921875
10355.4128668551	0.2547607421875	2.97882080078125
10356.4128668526	0.25439453125	2.9791259765625
10357.41286685	0.2540283203125	2.97882080078125
10358.4128668475	0.25372314453125	2.97882080078125
10359.412866845	0.25341796875	2.97882080078125
10360.4128668425	0.253143310546875	2.97882080078125
10361.4128668399	0.25286865234375	2.9791259765625
10362.4128668374	0.25262451171875	2.97821044921875
10363.4128668349	0.25238037109375	2.978515625
10364.4128668324	0.252166748046875	2.97943115234375
10365.4128668298	0.251953125	2.97943115234375
10366.4128668273	0.25177001953125	2.97882080078125
10367.4128668248	0.2515869140625	2.97882080078125
10368.4128668223	0.251434326171875	2.978515625
10369.4128668198	0.251251220703125	2.9791259765625
10370.4128668172	0.2510986328125	2.9791259765625
10371.4128668147	0.250946044921875	2.97943115234375
10372.4128668122	0.250823974609375	2.97821044921875
10373.4128668097	0.25067138671875	2.97882080078125
10374.4128668071	0.25054931640625	2.9791259765625
10375.4128668046	0.25042724609375	2.97943115234375
10376.4128668021	0.25030517578125	2.97943115234375
10377.4128667996	0.25018310546875	2.97882080078125
10378.412866797	0.250091552734375	2.97821044921875
10379.4128667945	0.25	2.9791259765625
10380.412866792	0.249908447265625	2.9779052734375
10381.4128667895	0.24981689453125	2.979736328125
10382.4128667869	0.249725341796875	2.9791259765625
10383.4128667844	0.2496337890625	2.9791259765625
10384.4128667819	0.249542236328125	2.9791259765625
10385.4128667794	0.249481201171875	2.97882080078125
10386.4128667768	0.2493896484375	2.9791259765625
10387.4128667743	0.24932861328125	2.97882080078125
10388.4128667718	0.249237060546875	2.9791259765625
10389.4128667693	0.249176025390625	2.97943115234375
10390.4128667667	0.249114990234375	2.978515625
10391.4128667642	0.249053955078125	2.978515625
10392.4128667617	0.248992919921875	2.978515625
10393.4128667592	0.248931884765625	2.97882080078125
10394.4128667566	0.248870849609375	2.9779052734375
10395.4128667541	0.248809814453125	2.97882080078125
10396.4128667516	0.248748779296875	2.97882080078125
10397.4128667491	0.24871826171875	2.9791259765625
10398.4128667465	0.2486572265625	2.97882080078125
10399.412866744	0.24859619140625	2.9791259765625
10400.4128667415	0.248565673828125	2.978515625
10401.412866739	0.248504638671875	2.978515625
10402.4128667364	0.24847412109375	2.9791259765625
10403.4128667339	0.248443603515625	2.97882080078125
10404.4128667314	0.248382568359375	2.97943115234375
10405.4128667289	0.24835205078125	2.9791259765625
10406.4128667263	0.248321533203125	2.9779052734375
10407.4128667238	0.248291015625	2.97882080078125
10408.4128667213	0.24822998046875	2.979736328125
10409.4128667188	0.248199462890625	2.9791259765625
10410.4128667162	0.2481689453125	2.978515625
10411.4128667137	0.248138427734375	2.97943115234375
10412.4128667112	0.24810791015625	2.97943115234375
10413.4128667087	0.248077392578125	2.978515625
10414.4128667061	0.248046875	2.97882080078125
10415.4128667036	0.248016357421875	2.9791259765625
10416.4128667011	0.24798583984375	2.978515625
10417.4128666986	0.24798583984375	2.978515625
10418.412866696	0.247955322265625	2.97882080078125
10419.4128666935	0.2479248046875	2.9779052734375
10420.412866691	0.247894287109375	2.9791259765625
10421.4128666885	0.24786376953125	2.97882080078125
10422.4128666859	0.24786376953125	2.9791259765625
10423.4128666834	0.247833251953125	2.978515625
10424.4128666809	0.247802734375	2.97943115234375
10425.4128666784	0.247772216796875	2.978515625
10426.4128666758	0.247772216796875	2.9791259765625
10427.4128666733	0.24774169921875	2.978515625
10428.4128666708	0.24774169921875	2.97882080078125
10429.4128666683	0.247711181640625	2.97882080078125
10430.4128666657	0.2476806640625	2.9791259765625
10431.4128666632	0.2476806640625	2.978515625
10432.4128666607	0.247650146484375	2.97882080078125
10433.4128666582	0.247650146484375	2.97882080078125
10434.4128666556	0.24761962890625	2.9791259765625
10435.4128666531	0.24761962890625	2.97943115234375
10436.4128666506	0.247589111328125	2.97882080078125
10437.4128666481	0.247589111328125	2.978515625
10438.4128666455	0.247589111328125	2.9791259765625
10439.412866643	0.24755859375	2.97882080078125
10440.4128666405	0.24755859375	2.9791259765625
10441.412866638	0.247528076171875	2.978515625
10442.4128666354	0.247528076171875	2.9791259765625
10443.4128666329	0.247528076171875	2.9791259765625
10444.4128666304	0.24749755859375	2.9791259765625
10445.4128666279	0.24749755859375	2.97943115234375
10446.4128666253	0.24749755859375	2.979736328125
10447.4128666228	0.247467041015625	2.9791259765625
10448.4128666203	0.247467041015625	2.97943115234375
10449.4128666178	0.247467041015625	2.978515625
10450.4128666152	0.247467041015625	2.97882080078125
10451.4128666127	0.2474365234375	2.9791259765625
10452.4128666102	0.2474365234375	2.9791259765625
10453.4128666077	0.2474365234375	2.97882080078125
10454.4128666051	0.2474365234375	2.97882080078125
10455.4128666026	0.247406005859375	2.97882080078125
10456.4128666001	0.247406005859375	2.97882080078125
10457.4128665976	0.247406005859375	2.978515625
10458.412866595	0.247406005859375	2.97821044921875
10459.4128665925	0.247406005859375	2.979736328125
10460.41286659	0.247406005859375	2.978515625
10461.4128665875	0.24737548828125	2.97882080078125
10462.4128665849	0.24737548828125	2.978515625
10463.4128665824	0.24737548828125	2.9791259765625
10464.4128665799	0.24737548828125	2.978515625
10465.4128665774	0.24737548828125	2.9791259765625
10466.4128665748	0.24737548828125	2.9791259765625
10467.4128665723	0.24737548828125	2.97943115234375
10468.4128665698	0.24737548828125	2.97882080078125
10469.4128665673	0.24737548828125	2.9791259765625
10470.4128665647	0.247344970703125	2.97821044921875
10471.4128665622	0.247344970703125	2.97943115234375
10472.4128665597	0.247344970703125	2.978515625
10473.4128665572	0.247344970703125	2.9791259765625
10474.4128665547	0.247344970703125	2.97882080078125
10475.4128665521	0.247344970703125	2.97882080078125
10476.4128665496	0.247344970703125	2.97821044921875
10477.4128665471	0.247344970703125	2.97882080078125
10478.4128665446	0.247344970703125	2.978515625
10479.412866542	0.247344970703125	2.978515625
10480.4128665395	0.247344970703125	2.978515625
10481.412866537	0.247344970703125	2.978515625
10482.4128665345	0.247344970703125	2.97882080078125
10483.4128665319	0.247344970703125	2.978515625
10484.4128665294	0.247344970703125	2.97882080078125
10485.4128665269	0.247344970703125	2.9779052734375
10486.4128665244	0.247344970703125	2.97882080078125
10487.4128665218	0.247344970703125	2.97882080078125
10488.4128665193	0.247344970703125	2.9791259765625
10489.4128665168	0.24737548828125	2.9791259765625
10490.4128665143	0.24737548828125	2.978515625
10491.4128665117	0.24737548828125	2.97821044921875
10492.4128665092	0.24737548828125	2.97943115234375
10493.4128665067	0.24737548828125	2.97943115234375
10494.4128665042	0.24737548828125	2.9791259765625
10495.4128665016	0.24737548828125	2.97882080078125
10496.4128664991	0.24737548828125	2.9791259765625
10497.4128664966	0.24737548828125	2.97943115234375
10498.4128664941	0.24737548828125	2.9791259765625
10499.4128664915	0.24737548828125	2.978515625
10500.412866489	0.247406005859375	2.97882080078125
10501.4128664865	0.247406005859375	2.9791259765625
10502.412866484	0.247406005859375	2.97821044921875
10503.4128664814	0.247406005859375	2.97882080078125
10504.4128664789	0.247406005859375	2.9791259765625
10505.4128664764	0.247406005859375	2.9791259765625
10506.4128664739	0.247406005859375	2.9791259765625
10507.4128664713	0.247406005859375	2.978515625
10508.4128664688	0.2474365234375	2.978515625
10509.4128664663	0.2474365234375	2.97882080078125
10510.4128664638	0.2474365234375	2.97943115234375
10511.4128664612	0.2474365234375	2.97882080078125
10512.4128664587	0.2474365234375	2.978515625
10513.4128664562	0.247467041015625	2.9791259765625
10514.4128664537	0.247467041015625	2.97882080078125
10515.4128664511	0.247467041015625	2.97882080078125
10516.4128664486	0.247467041015625	2.9779052734375
10517.4128664461	0.247467041015625	2.978515625
10518.4128664436	0.24749755859375	2.9791259765625
10519.412866441	0.24749755859375	2.97882080078125
10520.4128664385	0.24749755859375	2.97882080078125
10521.412866436	0.24749755859375	2.9779052734375
10522.4128664335	0.247528076171875	2.978515625
10523.4128664309	0.247528076171875	2.9791259765625
10524.4128664284	0.247528076171875	2.978515625
10525.4128664259	0.247528076171875	2.97821044921875
10526.4128664234	0.247528076171875	2.97943115234375
10527.4128664208	0.24755859375	2.97882080078125
10528.4128664183	0.24755859375	2.978515625
10529.4128664158	0.24755859375	2.97882080078125
10530.4128664133	0.24755859375	2.978515625
10531.4128664107	0.247589111328125	2.9791259765625
10532.4128664082	0.247589111328125	2.97882080078125
10533.4128664057	0.247589111328125	2.97882080078125
10534.4128664032	0.24761962890625	2.97943115234375
10535.4128664006	0.24761962890625	2.9791259765625
10536.4128663981	0.24761962890625	2.978515625
10537.4128663956	0.24761962890625	2.978515625
10538.4128663931	0.247650146484375	2.97882080078125
10539.4128663905	0.247650146484375	2.97882080078125
10540.412866388	0.247650146484375	2.978515625
10541.4128663855	0.247650146484375	2.97882080078125
10542.412866383	0.2476806640625	2.9791259765625
10543.4128663804	0.2476806640625	2.978515625
10544.4128663779	0.2476806640625	2.9791259765625
10545.4128663754	0.247711181640625	2.97821044921875
10546.4128663729	0.247711181640625	2.97882080078125
10547.4128663703	0.247711181640625	2.97821044921875
10548.4128663678	0.24774169921875	2.9791259765625
10549.4128663653	0.24774169921875	2.97882080078125
10550.4128663628	0.24774169921875	2.978515625
10551.4128663602	0.247772216796875	2.97821044921875
10552.4128663577	0.247772216796875	2.978515625
10553.4128663552	0.247772216796875	2.9779052734375
10554.4128663527	0.247802734375	2.97882080078125
10555.4128663501	0.247802734375	2.97821044921875
10556.4128663476	0.247802734375	2.97821044921875
10557.4128663451	0.247802734375	2.97882080078125
10558.4128663426	0.247833251953125	2.97882080078125
10559.41286634	0.247833251953125	2.978515625
10560.4128663375	0.24786376953125	2.97882080078125
10561.412866335	0.24786376953125	2.97882080078125
10562.4128663325	0.24786376953125	2.97943115234375
10563.4128663299	0.247894287109375	2.979736328125
10564.4128663274	0.247894287109375	2.978515625
10565.4128663249	0.247894287109375	2.978515625
10566.4128663224	0.2479248046875	2.978515625
10567.4128663198	0.2479248046875	2.97882080078125
10568.4128663173	0.2479248046875	2.97882080078125
10569.4128663148	0.247955322265625	2.978515625
10570.4128663123	0.247955322265625	2.97882080078125
10571.4128663097	0.247955322265625	2.97943115234375
10572.4128663072	0.24798583984375	2.978515625
10573.4128663047	0.24798583984375	2.97821044921875
10574.4128663022	0.24798583984375	2.978515625
10575.4128662997	0.248016357421875	2.97821044921875
10576.4128662971	0.248016357421875	2.97882080078125
10577.4128662946	0.248046875	2.97882080078125
10578.4128662921	0.248046875	2.97882080078125
10579.4128662896	0.248046875	2.97882080078125
10580.412866287	0.248077392578125	2.97882080078125
10581.4128662845	0.248077392578125	2.97882080078125
10582.412866282	0.24810791015625	2.97882080078125
10583.4128662795	0.24810791015625	2.97882080078125
10584.4128662769	0.24810791015625	2.9791259765625
10585.4128662744	0.248138427734375	2.9791259765625
10586.4128662719	0.248138427734375	2.978515625
10587.4128662694	0.248138427734375	2.978515625
10588.4128662668	0.2481689453125	2.97821044921875
10589.4128662643	0.2481689453125	2.978515625
10590.4128662618	0.2481689453125	2.9791259765625
10591.4128662593	0.248199462890625	2.97882080078125
10592.4128662567	0.248199462890625	2.9791259765625
10593.4128662542	0.24822998046875	2.9791259765625
10594.4128662517	0.24822998046875	2.97882080078125
10595.4128662492	0.24822998046875	2.978515625
10596.4128662466	0.248260498046875	2.979736328125
10597.4128662441	0.248260498046875	2.97943115234375
10598.4128662416	0.248291015625	2.97882080078125
10599.4128662391	0.248291015625	2.97882080078125
10600.4128662365	0.248291015625	2.97882080078125
10601.412866234	0.248321533203125	2.9791259765625
10602.4128662315	0.248321533203125	2.978515625
10603.412866229	0.248321533203125	2.97943115234375
10604.4128662264	0.24835205078125	2.9791259765625
10605.4128662239	0.24835205078125	2.97821044921875
10606.4128662214	0.248382568359375	2.9779052734375
10607.4128662189	0.248382568359375	2.9779052734375
10608.4128662163	0.248382568359375	2.9791259765625
10609.4128662138	0.2484130859375	2.9779052734375
10610.4128662113	0.2484130859375	2.978515625
10611.4128662088	0.2484130859375	2.97943115234375
10612.4128662062	0.248443603515625	2.978515625
10613.4128662037	0.248443603515625	2.978515625
10614.4128662012	0.24847412109375	2.97882080078125
10615.4128661987	0.24847412109375	2.97821044921875
10616.4128661961	0.248504638671875	2.97882080078125
10617.4128661936	0.248504638671875	2.978515625
10618.4128661911	0.248504638671875	2.9791259765625
10619.4128661886	0.24853515625	2.97882080078125
10620.412866186	0.24853515625	2.9791259765625
10621.4128661835	0.248565673828125	2.97882080078125
10622.412866181	0.248565673828125	2.97943115234375
10623.4128661785	0.24859619140625	2.97882080078125
10624.4128661759	0.24859619140625	2.97821044921875
10625.4128661734	0.24859619140625	2.97943115234375
10626.4128661709	0.248626708984375	2.97821044921875
10627.4128661684	0.248626708984375	2.97821044921875
10628.4128661658	0.2486572265625	2.97821044921875
10629.4128661633	0.2486572265625	2.97943115234375
10630.4128661608	0.2486572265625	2.97821044921875
10631.4128661583	0.248687744140625	2.97821044921875
10632.4128661557	0.248687744140625	2.9791259765625
10633.4128661532	0.24871826171875	2.97882080078125
10634.4128661507	0.24871826171875	2.978515625
10635.4128661482	0.248748779296875	2.97882080078125
10636.4128661456	0.248748779296875	2.97882080078125
10637.4128661431	0.248779296875	2.9779052734375
10638.4128661406	0.248779296875	2.9779052734375
