Time (s)	WE(1).Potential (V)	External(1).External 2 (V)
11646.3200145959	-0.499481201171875	1.17828369140625
11647.3200145933	-0.499053955078125	1.1773681640625
11648.3200145908	-0.497344970703125	1.19964599609375
11649.3200145883	-0.495330810546875	1.19842529296875
11650.3200145858	-0.49322509765625	1.197509765625
11651.3200145832	-0.49114990234375	1.1993408203125
11652.3200145807	-0.489105224609375	1.21673583984375
11653.3200145782	-0.487152099609375	1.2164306640625
11654.3200145757	-0.48529052734375	1.2164306640625
11655.3200145731	-0.483489990234375	1.21826171875
11656.3200145706	-0.481781005859375	1.217041015625
11657.3200145681	-0.4801025390625	1.2188720703125
11658.3200145656	-0.478515625	1.23504638671875
11659.320014563	-0.477264404296875	1.2359619140625
11660.3200145605	-0.47576904296875	1.23504638671875
11661.320014558	-0.47430419921875	1.236572265625
11662.3200145555	-0.472930908203125	1.23565673828125
11663.3200145529	-0.471588134765625	1.236572265625
11664.3200145504	-0.470245361328125	1.2548828125
11665.3200145479	-0.468994140625	1.25518798828125
11666.3200145454	-0.467742919921875	1.253662109375
11667.3200145428	-0.466552734375	1.25701904296875
11668.3200145403	-0.46539306640625	1.2548828125
11669.3200145378	-0.4642333984375	1.2542724609375
11670.3200145353	-0.463134765625	1.275634765625
11671.3200145328	-0.462005615234375	1.27471923828125
11672.3200145302	-0.4609375	1.2762451171875
11673.3200145277	-0.45989990234375	1.273193359375
11674.3200145252	-0.458892822265625	1.27410888671875
11675.3200145227	-0.4578857421875	1.27471923828125
11676.3200145201	-0.456878662109375	1.27471923828125
11677.3200145176	-0.4559326171875	1.2945556640625
11678.3200145151	-0.454986572265625	1.27716064453125
11679.3200145126	-0.45404052734375	1.29547119140625
11680.32001451	-0.453125	1.29425048828125
11681.3200145075	-0.452239990234375	1.295166015625
11682.320014505	-0.45135498046875	1.2933349609375
11683.3200145025	-0.450469970703125	1.295166015625
11684.3200144999	-0.44964599609375	1.2921142578125
11685.3200144974	-0.448760986328125	1.2939453125
11686.3200144949	-0.44793701171875	1.3134765625
11687.3200144924	-0.447113037109375	1.3140869140625
11688.3200144898	-0.446319580078125	1.312255859375
11689.3200144873	-0.445526123046875	1.31378173828125
11690.3200144848	-0.444854736328125	1.314697265625
11691.3200144823	-0.444091796875	1.314697265625
11692.3200144797	-0.443328857421875	1.3134765625
11693.3200144772	-0.44256591796875	1.3134765625
11694.3200144747	-0.44183349609375	1.334228515625
11695.3200144722	-0.441070556640625	1.334228515625
11696.3200144696	-0.44036865234375	1.3330078125
11697.3200144671	-0.43963623046875	1.3323974609375
11698.3200144646	-0.43890380859375	1.3330078125
11699.3200144621	-0.43817138671875	1.334228515625
11700.3200144595	-0.4375	1.33056640625
11701.320014457	-0.43682861328125	1.3494873046875
11702.3200144545	-0.436126708984375	1.3555908203125
11703.320014452	-0.435455322265625	1.33392333984375
11704.3200144494	-0.434814453125	1.35009765625
11705.3200144469	-0.43414306640625	1.35040283203125
11706.3200144444	-0.433502197265625	1.3519287109375
11707.3200144419	-0.432830810546875	1.35467529296875
11708.3200144393	-0.43218994140625	1.35162353515625
11709.3200144368	-0.43157958984375	1.3525390625
11710.3200144343	-0.430938720703125	1.3543701171875
11711.3200144318	-0.430328369140625	1.35528564453125
11712.3200144292	-0.4296875	1.35467529296875
11713.3200144267	-0.429107666015625	1.37298583984375
11714.3200144242	-0.428497314453125	1.3739013671875
11715.3200144217	-0.427886962890625	1.3720703125
11716.3200144191	-0.427276611328125	1.37176513671875
11717.3200144166	-0.42669677734375	1.3751220703125
11718.3200144141	-0.42608642578125	1.373291015625
11719.3200144116	-0.425506591796875	1.37451171875
11720.320014409	-0.4249267578125	1.37451171875
11721.3200144065	-0.424346923828125	1.3726806640625
11722.320014404	-0.42376708984375	1.39312744140625
11723.3200144015	-0.4232177734375	1.39251708984375
11724.3200143989	-0.422637939453125	1.39404296875
11725.3200143964	-0.422088623046875	1.39312744140625
11726.3200143939	-0.421539306640625	1.392822265625
11727.3200143914	-0.420989990234375	1.3916015625
11728.3200143888	-0.420440673828125	1.39068603515625
11729.3200143863	-0.419891357421875	1.38916015625
11730.3200143838	-0.41937255859375	1.3946533203125
11731.3200143813	-0.4188232421875	1.3934326171875
11732.3200143787	-0.41827392578125	1.39251708984375
11733.3200143762	-0.417755126953125	1.4129638671875
11734.3200143737	-0.417205810546875	1.39251708984375
11735.3200143712	-0.41668701171875	1.41082763671875
11736.3200143686	-0.416168212890625	1.4111328125
11737.3200143661	-0.4156494140625	1.41265869140625
11738.3200143636	-0.415130615234375	1.41326904296875
11739.3200143611	-0.41461181640625	1.41204833984375
11740.3200143585	-0.41412353515625	1.4093017578125
11741.320014356	-0.41363525390625	1.41265869140625
11742.3200143535	-0.413116455078125	1.4111328125
11743.320014351	-0.41259765625	1.4129638671875
11744.3200143484	-0.412078857421875	1.4129638671875
11745.3200143459	-0.411590576171875	1.43157958984375
11746.3200143434	-0.411102294921875	1.4312744140625
11747.3200143409	-0.410614013671875	1.42974853515625
11748.3200143383	-0.41009521484375	1.4324951171875
11749.3200143358	-0.40960693359375	1.4306640625
11750.3200143333	-0.40911865234375	1.431884765625
11751.3200143308	-0.40863037109375	1.4306640625
11752.3200143282	-0.40814208984375	1.431884765625
11753.3200143257	-0.40765380859375	1.431884765625
11754.3200143232	-0.407196044921875	1.42974853515625
11755.3200143207	-0.406707763671875	1.429443359375
11756.3200143181	-0.40625	1.431884765625
11757.3200143156	-0.40576171875	1.45172119140625
11758.3200143131	-0.405303955078125	1.45050048828125
11759.3200143106	-0.404815673828125	1.4501953125
11760.320014308	-0.40435791015625	1.44989013671875
11761.3200143055	-0.403900146484375	1.4495849609375
11762.320014303	-0.4034423828125	1.44927978515625
11763.3200143005	-0.4029541015625	1.4501953125
11764.3200142979	-0.402496337890625	1.44989013671875
11765.3200142954	-0.40203857421875	1.44866943359375
11766.3200142929	-0.401580810546875	1.44866943359375
11767.3200142904	-0.401123046875	1.468505859375
11768.3200142878	-0.400665283203125	1.4678955078125
11769.3200142853	-0.40020751953125	1.466064453125
11770.3200142828	-0.399749755859375	1.46697998046875
11771.3200142803	-0.399261474609375	1.466064453125
11772.3200142778	-0.398834228515625	1.470947265625
11773.3200142752	-0.39837646484375	1.4691162109375
11774.3200142727	-0.397918701171875	1.4678955078125
11775.3200142702	-0.3974609375	1.46881103515625
11776.3200142677	-0.39703369140625	1.46820068359375
11777.3200142651	-0.396575927734375	1.4691162109375
11778.3200142626	-0.396148681640625	1.4697265625
11779.3200142601	-0.39569091796875	1.48895263671875
11780.3200142576	-0.395233154296875	1.48895263671875
11781.320014255	-0.394805908203125	1.485595703125
11782.3200142525	-0.39434814453125	1.485595703125
11783.32001425	-0.3939208984375	1.48895263671875
11784.3200142475	-0.393463134765625	1.48468017578125
11785.3200142449	-0.393035888671875	1.4886474609375
11786.3200142424	-0.392608642578125	1.4892578125
11787.3200142399	-0.39215087890625	1.488037109375
11788.3200142374	-0.3917236328125	1.4874267578125
11789.3200142348	-0.39129638671875	1.4874267578125
11790.3200142323	-0.390869140625	1.48681640625
11791.3200142298	-0.39044189453125	1.48834228515625
11792.3200142273	-0.3900146484375	1.48834228515625
11793.3200142247	-0.38958740234375	1.50787353515625
11794.3200142222	-0.38916015625	1.5087890625
11795.3200142197	-0.38873291015625	1.50787353515625
11796.3200142172	-0.3883056640625	1.5093994140625
11797.3200142146	-0.38787841796875	1.51153564453125
11798.3200142121	-0.387451171875	1.5069580078125
11799.3200142096	-0.38702392578125	1.50909423828125
11800.3200142071	-0.3865966796875	1.50543212890625
11801.3200142045	-0.386199951171875	1.5081787109375
11802.320014202	-0.3857421875	1.507568359375
11803.3200141995	-0.38531494140625	1.50726318359375
11804.320014197	-0.384918212890625	1.52740478515625
11805.3200141944	-0.384490966796875	1.5386962890625
11806.3200141919	-0.38409423828125	1.507568359375
11807.3200141894	-0.3836669921875	1.50665283203125
11808.3200141869	-0.38323974609375	1.5264892578125
11809.3200141843	-0.3828125	1.5283203125
11810.3200141818	-0.38238525390625	1.5252685546875
11811.3200141793	-0.381988525390625	1.527099609375
11812.3200141768	-0.381561279296875	1.52740478515625
11813.3200141742	-0.38116455078125	1.52801513671875
11814.3200141717	-0.3807373046875	1.529541015625
11815.3200141692	-0.380340576171875	1.5283203125
11816.3200141667	-0.37994384765625	1.5277099609375
11817.3200141641	-0.3795166015625	1.52862548828125
11818.3200141616	-0.379119873046875	1.52801513671875
11819.3200141591	-0.37872314453125	1.52923583984375
11820.3200141566	-0.3782958984375	1.5478515625
11821.320014154	-0.37786865234375	1.54876708984375
11822.3200141515	-0.37744140625	1.54571533203125
11823.320014149	-0.377044677734375	1.5478515625
11824.3200141465	-0.37664794921875	1.54754638671875
11825.3200141439	-0.376220703125	1.5679931640625
11826.3200141414	-0.375823974609375	1.56219482421875
11827.3200141389	-0.37542724609375	1.56646728515625
11828.3200141364	-0.375030517578125	1.5655517578125
11829.3200141338	-0.3746337890625	1.5679931640625
11830.3200141313	-0.374237060546875	1.5673828125
11831.3200141288	-0.373809814453125	1.566162109375
11832.3200141263	-0.3734130859375	1.56494140625
11833.3200141237	-0.373016357421875	1.56494140625
11834.3200141212	-0.37261962890625	1.56524658203125
11835.3200141187	-0.372222900390625	1.5643310546875
11836.3200141162	-0.371826171875	1.58538818359375
11837.3200141136	-0.371490478515625	1.5850830078125
11838.3200141111	-0.371124267578125	1.5869140625
11839.3200141086	-0.3707275390625	1.58294677734375
11840.3200141061	-0.370330810546875	1.585693359375
11841.3200141035	-0.36993408203125	1.5850830078125
11842.320014101	-0.369537353515625	1.5826416015625
11843.3200140985	-0.369110107421875	1.5838623046875
11844.320014096	-0.36871337890625	1.5826416015625
11845.3200140934	-0.368316650390625	1.5850830078125
11846.3200140909	-0.367919921875	1.5869140625
11847.3200140884	-0.367523193359375	1.60491943359375
11848.3200140859	-0.36712646484375	1.60552978515625
11849.3200140833	-0.366729736328125	1.60369873046875
11850.3200140808	-0.3663330078125	1.6046142578125
11851.3200140783	-0.365936279296875	1.60186767578125
11852.3200140758	-0.36553955078125	1.605224609375
11853.3200140732	-0.36517333984375	1.605224609375
11854.3200140707	-0.364776611328125	1.6046142578125
11855.3200140682	-0.3643798828125	1.60491943359375
11856.3200140657	-0.363983154296875	1.605224609375
11857.3200140631	-0.36358642578125	1.60491943359375
11858.3200140606	-0.363189697265625	1.605224609375
11859.3200140581	-0.36279296875	1.62322998046875
11860.3200140556	-0.362396240234375	1.60369873046875
11861.320014053	-0.362030029296875	1.6058349609375
11862.3200140505	-0.36163330078125	1.605224609375
11863.320014048	-0.361236572265625	1.60430908203125
11864.3200140455	-0.360870361328125	1.62445068359375
11865.3200140429	-0.360504150390625	1.622314453125
11866.3200140404	-0.360107421875	1.619873046875
11867.3200140379	-0.359710693359375	1.62353515625
