Time (s)	WE(1).Potential (V)
335.324099153388	-0.58319091796875
336.324099150863	-0.55267333984375
337.324099148339	-0.53131103515625
338.324099145814	-0.513916015625
339.324099143289	-0.4990234375
340.324099140764	-0.485595703125
341.324099138239	-0.47320556640625
342.324099135715	-0.461578369140625
343.32409913319	-0.450714111328125
344.324099130665	-0.44073486328125
345.32409912814	-0.43170166015625
346.324099125616	-0.423675537109375
347.324099123091	-0.4163818359375
348.324099120566	-0.40972900390625
349.324099118041	-0.403472900390625
350.324099115517	-0.3975830078125
351.324099112992	-0.3919677734375
352.324099110467	-0.38665771484375
353.324099107942	-0.381591796875
354.324099105418	-0.376708984375
355.324099102893	-0.3720703125
356.324099100368	-0.3675537109375
357.324099097843	-0.36322021484375
358.324099095319	-0.359039306640625
359.324099092794	-0.355010986328125
360.324099090269	-0.35107421875
361.324099087744	-0.347259521484375
362.32409908522	-0.343505859375
363.324099082695	-0.339874267578125
364.32409908017	-0.33624267578125
365.324099077645	-0.332733154296875
366.324099075121	-0.329254150390625
367.324099072596	-0.32586669921875
368.324099070071	-0.322479248046875
369.324099067546	-0.319183349609375
370.324099065022	-0.315948486328125
371.324099062497	-0.312713623046875
372.324099059972	-0.3095703125
373.324099057447	-0.30645751953125
374.324099054923	-0.30340576171875
375.324099052398	-0.30035400390625
376.324099049873	-0.29736328125
377.324099047348	-0.294403076171875
378.324099044823	-0.291473388671875
379.324099042299	-0.288604736328125
380.324099039774	-0.2857666015625
381.324099037249	-0.282958984375
382.324099034724	-0.28021240234375
383.3240990322	-0.2774658203125
384.324099029675	-0.2747802734375
385.32409902715	-0.27215576171875
386.324099024625	-0.269561767578125
387.324099022101	-0.266998291015625
388.324099019576	-0.264495849609375
389.324099017051	-0.262054443359375
390.324099014526	-0.25958251953125
391.324099012002	-0.257171630859375
392.324099009477	-0.254791259765625
393.324099006952	-0.25250244140625
394.324099004427	-0.250213623046875
395.324099001903	-0.247955322265625
396.324098999378	-0.2457275390625
397.324098996853	-0.243560791015625
398.324098994328	-0.241424560546875
399.324098991804	-0.23931884765625
400.324098989279	-0.2371826171875
401.324098986754	-0.235107421875
402.324098984229	-0.233062744140625
403.324098981705	-0.231048583984375
404.32409897918	-0.22906494140625
405.324098976655	-0.227081298828125
406.32409897413	-0.22515869140625
407.324098971606	-0.22320556640625
408.324098969081	-0.2213134765625
409.324098966556	-0.21942138671875
410.324098964031	-0.217559814453125
411.324098961506	-0.2156982421875
412.324098958982	-0.213836669921875
413.324098956457	-0.21197509765625
414.324098953932	-0.210113525390625
415.324098951407	-0.208282470703125
416.324098948883	-0.206451416015625
417.324098946358	-0.204620361328125
418.324098943833	-0.20281982421875
419.324098941308	-0.200958251953125
420.324098938784	-0.1990966796875
421.324098936259	-0.197174072265625
422.324098933734	-0.19525146484375
423.324098931209	-0.193328857421875
424.324098928685	-0.191375732421875
425.32409892616	-0.189453125
426.324098923635	-0.187469482421875
427.32409892111	-0.185455322265625
428.324098918586	-0.183380126953125
429.324098916061	-0.1812744140625
430.324098913536	-0.179107666015625
431.324098911011	-0.176910400390625
432.324098908487	-0.174652099609375
433.324098905962	-0.172393798828125
434.324098903437	-0.1700439453125
435.324098900912	-0.167694091796875
436.324098898388	-0.165252685546875
437.324098895863	-0.16278076171875
438.324098893338	-0.160247802734375
439.324098890813	-0.157623291015625
440.324098888289	-0.15496826171875
441.324098885764	-0.152252197265625
442.324098883239	-0.149505615234375
443.324098880714	-0.146697998046875
444.324098878189	-0.143829345703125
445.324098875665	-0.140899658203125
446.32409887314	-0.137939453125
447.324098870615	-0.1348876953125
448.32409886809	-0.13177490234375
449.324098865566	-0.12860107421875
450.324098863041	-0.1253662109375
451.324098860516	-0.122100830078125
452.324098857991	-0.1187744140625
453.324098855467	-0.11541748046875
454.324098852942	-0.11199951171875
455.324098850417	-0.108551025390625
456.324098847892	-0.105072021484375
457.324098845368	-0.1015625
458.324098842843	-0.098052978515625
459.324098840318	-0.09454345703125
460.324098837793	-0.091033935546875
461.324098835269	-0.08758544921875
462.324098832744	-0.0841064453125
463.324098830219	-0.080657958984375
464.324098827694	-0.0772705078125
465.32409882517	-0.073883056640625
466.324098822645	-0.070556640625
467.32409882012	-0.0672607421875
468.324098817595	-0.06402587890625
469.324098815071	-0.060821533203125
470.324098812546	-0.057647705078125
471.324098810021	-0.054595947265625
472.324098807496	-0.051544189453125
473.324098804972	-0.048577880859375
474.324098802447	-0.0456634521484375
475.324098799922	-0.0427886962890625
476.324098797397	-0.0399810791015625
477.324098794873	-0.03720703125
478.324098792348	-0.03447265625
479.324098789823	-0.03177490234375
480.324098787298	-0.029095458984375
481.324098784773	-0.0264495849609375
482.324098782249	-0.023834228515625
483.324098779724	-0.021234130859375
484.324098777199	-0.0186767578125
485.324098774674	-0.0161468505859375
486.32409877215	-0.013671875
487.324098769625	-0.0112152099609375
488.3240987671	-0.00881042480468749
489.324098764575	-0.0064544677734375
490.324098762051	-0.0041534423828125
491.324098759526	-0.001910400390625
492.324098757001	0.0002593994140625
493.324098754476	0.0023651123046875
494.324098751952	0.0043304443359375
495.324098749427	0.0063507080078125
496.324098746902	0.0082122802734375
497.324098744377	0.01002197265625
498.324098741853	0.0117431640625
499.324098739328	0.0133819580078125
500.324098736803	0.01494140625
501.324098734278	0.0164276123046875
502.324098731754	0.01783447265625
503.324098729229	0.019183349609375
504.324098726704	0.020458984375
505.324098724179	0.021649169921875
506.324098721655	0.02281494140625
507.32409871913	0.0238922119140625
508.324098716605	0.024908447265625
509.32409871408	0.0258697509765625
510.324098711556	0.0267669677734375
511.324098709031	0.0276275634765625
512.324098706506	0.0284423828125
513.324098703981	0.0292022705078125
514.324098701456	0.029925537109375
515.324098698932	0.0306243896484375
516.324098696407	0.0312774658203125
517.324098693882	0.0318878173828125
518.324098691357	0.0324859619140625
519.324098688833	0.033062744140625
520.324098686308	0.0336151123046875
521.324098683783	0.0341552734375
522.324098681258	0.0346771240234375
523.324098678734	0.035174560546875
524.324098676209	0.0356719970703125
525.324098673684	0.036138916015625
526.324098671159	0.036627197265625
527.324098668635	0.037103271484375
528.32409866611	0.037591552734375
529.324098663585	0.038079833984375
530.32409866106	0.0385833740234375
531.324098658536	0.0390869140625
532.324098656011	0.039617919921875
533.324098653486	0.04014892578125
534.324098650961	0.040692138671875
535.324098648437	0.041253662109375
536.324098645912	0.0418365478515625
537.324098643387	0.0424163818359375
538.324098640862	0.0430572509765625
539.324098638338	0.043695068359375
540.324098635813	0.044354248046875
541.324098633288	0.04501953125
542.324098630763	0.04569091796875
543.324098628239	0.0464630126953125
544.324098625714	0.04720458984375
545.324098623189	0.0480194091796875
546.324098620664	0.048834228515625
547.324098618139	0.0496826171875
548.324098615615	0.050567626953125
549.32409861309	0.051422119140625
550.324098610565	0.05230712890625
551.32409860804	0.05322265625
552.324098605516	0.054168701171875
553.324098602991	0.055084228515625
554.324098600466	0.0560302734375
555.324098597941	0.057037353515625
556.324098595417	0.05804443359375
557.324098592892	0.05908203125
558.324098590367	0.06011962890625
559.324098587842	0.0611572265625
560.324098585318	0.062255859375
561.324098582793	0.063323974609375
562.324098580268	0.064422607421875
563.324098577743	0.065521240234375
564.324098575219	0.066650390625
565.324098572694	0.067779541015625
566.324098570169	0.06890869140625
567.324098567644	0.070068359375
568.32409856512	0.07122802734375
569.324098562595	0.072357177734375
570.32409856007	0.073516845703125
571.324098557545	0.074676513671875
572.324098555021	0.07586669921875
573.324098552496	0.0770263671875
574.324098549971	0.078216552734375
575.324098547446	0.079376220703125
576.324098544922	0.080535888671875
577.324098542397	0.081695556640625
578.324098539872	0.082855224609375
579.324098537347	0.08404541015625
580.324098534823	0.085174560546875
581.324098532298	0.086334228515625
582.324098529773	0.087493896484375
583.324098527248	0.088623046875
584.324098524723	0.08978271484375
585.324098522199	0.090911865234375
586.324098519674	0.092041015625
587.324098517149	0.0931396484375
588.324098514624	0.094268798828125
589.3240985121	0.0953369140625
590.324098509575	0.096435546875
591.32409850705	0.097503662109375
592.324098504525	0.09857177734375
593.324098502001	0.099639892578125
594.324098499476	0.100677490234375
595.324098496951	0.101715087890625
596.324098494426	0.10272216796875
597.324098491902	0.103759765625
598.324098489377	0.104766845703125
599.324098486852	0.105743408203125
600.324098484327	0.106719970703125
601.324098481803	0.107696533203125
602.324098479278	0.108673095703125
603.324098476753	0.109588623046875
604.324098474228	0.11053466796875
605.324098471704	0.1114501953125
606.324098469179	0.112335205078125
607.324098466654	0.11322021484375
608.324098464129	0.1141357421875
609.324098461605	0.114990234375
610.32409845908	0.115875244140625
611.324098456555	0.11669921875
612.32409845403	0.11749267578125
613.324098451506	0.118316650390625
614.324098448981	0.119140625
615.324098446456	0.11993408203125
616.324098443931	0.120697021484375
617.324098441406	0.1214599609375
618.324098438882	0.1221923828125
619.324098436357	0.122955322265625
620.324098433832	0.123687744140625
621.324098431307	0.124420166015625
622.324098428783	0.1251220703125
623.324098426258	0.125762939453125
624.324098423733	0.12646484375
625.324098421208	0.12713623046875
626.324098418684	0.1278076171875
627.324098416159	0.12847900390625
628.324098413634	0.129119873046875
629.324098411109	0.1297607421875
630.324098408585	0.13018798828125
631.32409840606	0.13079833984375
632.324098403535	0.131500244140625
633.32409840101	0.1322021484375
634.324098398486	0.1328125
635.324098395961	0.133392333984375
636.324098393436	0.134002685546875
637.324098390911	0.134552001953125
638.324098388387	0.1351318359375
639.324098385862	0.13568115234375
640.324098383337	0.136199951171875
641.324098380812	0.13671875
642.324098378288	0.137237548828125
643.324098375763	0.137725830078125
644.324098373238	0.13824462890625
645.324098370713	0.13873291015625
646.324098368189	0.13922119140625
647.324098365664	0.139678955078125
648.324098363139	0.140167236328125
649.324098360614	0.140625
650.324098358089	0.141082763671875
651.324098355565	0.14154052734375
652.32409835304	0.1419677734375
653.324098350515	0.14239501953125
654.32409834799	0.142852783203125
655.324098345466	0.143280029296875
656.324098342941	0.143707275390625
657.324098340416	0.144134521484375
658.324098337891	0.14453125
659.324098335367	0.144927978515625
660.324098332842	0.14532470703125
661.324098330317	0.14569091796875
662.324098327792	0.146087646484375
663.324098325268	0.146453857421875
664.324098322743	0.146820068359375
665.324098320218	0.147216796875
666.324098317693	0.147552490234375
667.324098315169	0.14794921875
668.324098312644	0.1483154296875
669.324098310119	0.148651123046875
670.324098307594	0.14898681640625
671.32409830507	0.149322509765625
672.324098302545	0.149658203125
673.32409830002	0.14996337890625
674.324098297495	0.1502685546875
675.324098294971	0.15057373046875
676.324098292446	0.150909423828125
677.324098289921	0.151214599609375
678.324098287396	0.151519775390625
679.324098284872	0.1517333984375
680.324098282347	0.152130126953125
681.324098279822	0.152435302734375
682.324098277297	0.1527099609375
683.324098274773	0.152984619140625
684.324098272248	0.153289794921875
685.324098269723	0.153533935546875
686.324098267198	0.153839111328125
687.324098264673	0.15411376953125
688.324098262149	0.154388427734375
689.324098259624	0.1546630859375
690.324098257099	0.1549072265625
691.324098254574	0.155181884765625
692.32409825205	0.15545654296875
693.324098249525	0.15570068359375
694.324098247	0.15594482421875
695.324098244475	0.155975341796875
696.324098241951	0.15625
697.324098239426	0.156494140625
698.324098236901	0.15673828125
699.324098234376	0.156982421875
700.324098231852	0.157257080078125
701.324098229327	0.157501220703125
702.324098226802	0.15771484375
703.324098224277	0.157989501953125
704.324098221753	0.15826416015625
705.324098219228	0.15850830078125
706.324098216703	0.158782958984375
707.324098214178	0.159027099609375
708.324098211654	0.15924072265625
709.324098209129	0.15948486328125
710.324098206604	0.159698486328125
711.324098204079	0.15997314453125
712.324098201555	0.16021728515625
713.32409819903	0.16046142578125
714.324098196505	0.160675048828125
715.32409819398	0.160919189453125
716.324098191456	0.1611328125
717.324098188931	0.161346435546875
718.324098186406	0.161529541015625
719.324098183881	0.1617431640625
720.324098181356	0.1619873046875
721.324098178832	0.162139892578125
722.324098176307	0.162353515625
723.324098173782	0.16253662109375
724.324098171257	0.162689208984375
725.324098168733	0.162872314453125
726.324098166208	0.163055419921875
727.324098163683	0.1632080078125
728.324098161158	0.163360595703125
729.324098158634	0.16351318359375
730.324098156109	0.163665771484375
731.324098153584	0.163818359375
732.324098151059	0.163970947265625
733.324098148535	0.164154052734375
734.32409814601	0.164306640625
735.324098143485	0.1644287109375
736.32409814096	0.164581298828125
737.324098138436	0.164703369140625
738.324098135911	0.16485595703125
739.324098133386	0.16497802734375
740.324098130861	0.16510009765625
741.324098128337	0.165252685546875
742.324098125812	0.1654052734375
743.324098123287	0.16552734375
744.324098120762	0.165679931640625
745.324098118238	0.16583251953125
746.324098115713	0.16595458984375
747.324098113188	0.166107177734375
748.324098110663	0.166259765625
749.324098108139	0.1663818359375
750.324098105614	0.166534423828125
751.324098103089	0.166656494140625
752.324098100564	0.16680908203125
753.324098098039	0.16693115234375
754.324098095515	0.16705322265625
