Time (s)	WE(1).Potential (V)	External(1).External 2 (V)
2939.04311957963	0.86669921875	3.19122314453125
2940.0431195771	0.76873779296875	3.23150634765625
2941.04311957458	0.684814453125	3.2122802734375
2942.04311957206	0.611572265625	3.21197509765625
2943.04311956953	0.54656982421875	3.2110595703125
2944.04311956701	0.488677978515625	3.2122802734375
2945.04311956448	0.4375	3.21197509765625
2946.04311956196	0.392333984375	3.23150634765625
2947.04311955943	0.352935791015625	3.193359375
2948.04311955691	0.319244384765625	3.211669921875
2949.04311955438	0.291748046875	3.23150634765625
2950.04311955186	0.270782470703125	3.211669921875
2951.04311954933	0.255462646484375	3.21197509765625
2952.04311954681	0.24420166015625	3.2122802734375
2953.04311954428	0.235626220703125	3.21197509765625
2954.04311954176	0.228912353515625	3.2122802734375
2955.04311953923	0.2235107421875	3.21258544921875
2956.04311953671	0.218994140625	3.211669921875
2957.04311953418	0.215179443359375	3.2110595703125
2958.04311953166	0.2119140625	3.21044921875
2959.04311952913	0.209075927734375	3.21136474609375
2960.04311952661	0.206512451171875	3.192138671875
2961.04311952408	0.20428466796875	3.2305908203125
2962.04311952156	0.202239990234375	3.2293701171875
2963.04311951904	0.200408935546875	3.1927490234375
2964.04311951651	0.198699951171875	3.21014404296875
2965.04311951399	0.197174072265625	3.2110595703125
2966.04311951146	0.19573974609375	3.2110595703125
2967.04311950894	0.194427490234375	3.21136474609375
2968.04311950641	0.193206787109375	3.211669921875
2969.04311950389	0.19207763671875	3.1915283203125
2970.04311950136	0.191009521484375	3.211669921875
2971.04311949884	0.189971923828125	3.1915283203125
2972.04311949631	0.1890869140625	3.1927490234375
2973.04311949379	0.18817138671875	3.2122802734375
2974.04311949126	0.187347412109375	3.212890625
2975.04311948874	0.186553955078125	3.21197509765625
2976.04311948621	0.185791015625	3.19305419921875
2977.04311948369	0.185089111328125	3.1927490234375
2978.04311948116	0.184417724609375	3.19305419921875
2979.04311947864	0.18377685546875	3.19305419921875
2980.04311947611	0.183135986328125	3.21136474609375
2981.04311947359	0.18255615234375	3.1927490234375
2982.04311947106	0.181976318359375	3.21197509765625
2983.04311946854	0.18145751953125	3.2110595703125
2984.04311946602	0.180938720703125	3.19122314453125
2985.04311946349	0.180450439453125	3.21197509765625
2986.04311946097	0.179962158203125	3.21197509765625
2987.04311945844	0.17950439453125	3.21075439453125
2988.04311945592	0.1790771484375	3.211669921875
2989.04311945339	0.17864990234375	3.21197509765625
2990.04311945087	0.17822265625	3.21197509765625
2991.04311944834	0.177825927734375	3.211669921875
2992.04311944582	0.177459716796875	3.2110595703125
2993.04311944329	0.177093505859375	3.21197509765625
2994.04311944077	0.176727294921875	3.23150634765625
2995.04311943824	0.1763916015625	3.23150634765625
2996.04311943572	0.176025390625	3.2122802734375
2997.04311943319	0.17572021484375	3.21197509765625
2998.04311943067	0.175384521484375	3.1927490234375
2999.04311942814	0.175079345703125	3.1927490234375
3000.04311942562	0.174774169921875	3.1927490234375
3001.04311942309	0.17449951171875	3.21136474609375
3002.04311942057	0.174224853515625	3.21197509765625
3003.04311941805	0.1739501953125	3.1927490234375
3004.04311941552	0.173675537109375	3.193359375
3005.043119413	0.173431396484375	3.2122802734375
3006.04311941047	0.17315673828125	3.23089599609375
3007.04311940795	0.17291259765625	3.19183349609375
3008.04311940542	0.17266845703125	3.21136474609375
3009.0431194029	0.17242431640625	3.19244384765625
3010.04311940037	0.17218017578125	3.21014404296875
3011.04311939785	0.171966552734375	3.193359375
3012.04311939532	0.171783447265625	3.19244384765625
3013.0431193928	0.17156982421875	3.19244384765625
3014.04311939027	0.171356201171875	3.21197509765625
3015.04311938775	0.171173095703125	3.2122802734375
3016.04311938522	0.17095947265625	3.193359375
3017.0431193827	0.1707763671875	3.19305419921875
3018.04311938017	0.17059326171875	3.21197509765625
3019.04311937765	0.17041015625	3.231201171875
3020.04311937512	0.17022705078125	3.193359375
3021.0431193726	0.1700439453125	3.193359375
3022.04311937007	0.16986083984375	3.1927490234375
3023.04311936755	0.169677734375	3.1927490234375
3024.04311936503	0.169525146484375	3.21075439453125
3025.0431193625	0.16937255859375	3.17230224609375
3026.04311935998	0.169189453125	3.1927490234375
3027.04311935745	0.1690673828125	3.21197509765625
3028.04311935493	0.168914794921875	3.19244384765625
3029.0431193524	0.168792724609375	3.21197509765625
3030.04311934988	0.16864013671875	3.2305908203125
3031.04311934735	0.168487548828125	3.1927490234375
3032.04311934483	0.168365478515625	3.19244384765625
3033.0431193423	0.168212890625	3.19305419921875
3034.04311933978	0.1680908203125	3.1927490234375
3035.04311933725	0.16796875	3.1927490234375
3036.04311933473	0.167816162109375	3.211669921875
3037.0431193322	0.167694091796875	3.2110595703125
3038.04311932968	0.167572021484375	3.211669921875
3039.04311932715	0.167449951171875	3.23150634765625
3040.04311932463	0.16729736328125	3.2110595703125
3041.0431193221	0.167205810546875	3.1927490234375
3042.04311931958	0.167083740234375	3.21197509765625
3043.04311931705	0.166961669921875	3.21044921875
3044.04311931453	0.166839599609375	3.2122802734375
3045.04311931201	0.166748046875	3.23150634765625
3046.04311930948	0.1666259765625	3.21197509765625
3047.04311930696	0.16650390625	3.19305419921875
3048.04311930443	0.166412353515625	3.21136474609375
3049.04311930191	0.166290283203125	3.211669921875
3050.04311929938	0.16619873046875	3.21197509765625
3051.04311929686	0.16607666015625	3.2122802734375
3052.04311929433	0.165985107421875	3.2122802734375
3053.04311929181	0.1658935546875	3.19244384765625
3054.04311928928	0.165802001953125	3.211669921875
3055.04311928676	0.165679931640625	3.192138671875
3056.04311928423	0.16558837890625	3.211669921875
3057.04311928171	0.165496826171875	3.2122802734375
3058.04311927918	0.1654052734375	3.21197509765625
3059.04311927666	0.165283203125	3.211669921875
3060.04311927413	0.165252685546875	3.21197509765625
3061.04311927161	0.165130615234375	3.21197509765625
3062.04311926908	0.165069580078125	3.192138671875
3063.04311926656	0.16497802734375	3.21197509765625
3064.04311926403	0.164886474609375	3.1927490234375
3065.04311926151	0.164794921875	3.2122802734375
3066.04311925899	0.16473388671875	3.2122802734375
3067.04311925646	0.164642333984375	3.2110595703125
3068.04311925394	0.16455078125	3.211669921875
3069.04311925141	0.16448974609375	3.19122314453125
3070.04311924889	0.164398193359375	3.21197509765625
3071.04311924636	0.164337158203125	3.21136474609375
3072.04311924384	0.16424560546875	3.1927490234375
3073.04311924131	0.164154052734375	3.19244384765625
3074.04311923879	0.164093017578125	3.21197509765625
3075.04311923626	0.164031982421875	3.21197509765625
3076.04311923374	0.1639404296875	3.1927490234375
3077.04311923121	0.16387939453125	3.21197509765625
3078.04311922869	0.163818359375	3.21197509765625
3079.04311922616	0.163726806640625	3.17352294921875
3080.04311922364	0.163665771484375	3.1927490234375
3081.04311922111	0.16357421875	3.211669921875
3082.04311921859	0.16351318359375	3.1927490234375
3083.04311921606	0.1634521484375	3.21197509765625
3084.04311921354	0.16339111328125	3.21197509765625
3085.04311921101	0.163330078125	3.21197509765625
3086.04311920849	0.16326904296875	3.1927490234375
3087.04311920597	0.1632080078125	3.21197509765625
3088.04311920344	0.16314697265625	3.19305419921875
3089.04311920092	0.1630859375	3.1927490234375
3090.04311919839	0.16302490234375	3.23150634765625
3091.04311919587	0.1629638671875	3.1927490234375
3092.04311919334	0.16290283203125	3.1927490234375
3093.04311919082	0.162811279296875	3.1915283203125
3094.04311918829	0.16278076171875	3.19244384765625
3095.04311918577	0.1627197265625	3.19305419921875
3096.04311918324	0.16265869140625	3.19122314453125
3097.04311918072	0.16259765625	3.1927490234375
3098.04311917819	0.16253662109375	3.21197509765625
3099.04311917567	0.1624755859375	3.21136474609375
3100.04311917314	0.16241455078125	3.1927490234375
3101.04311917062	0.162353515625	3.1927490234375
3102.04311916809	0.16229248046875	3.19244384765625
3103.04311916557	0.1622314453125	3.2110595703125
3104.04311916304	0.162200927734375	3.19305419921875
3105.04311916052	0.162139892578125	3.1927490234375
3106.043119158	0.162078857421875	3.1927490234375
3107.04311915547	0.162017822265625	3.21197509765625
3108.04311915295	0.1619873046875	3.1927490234375
3109.04311915042	0.16192626953125	3.19305419921875
3110.0431191479	0.161865234375	3.21197509765625
3111.04311914537	0.161834716796875	3.1927490234375
3112.04311914285	0.161773681640625	3.1927490234375
3113.04311914032	0.161712646484375	3.21197509765625
3114.0431191378	0.161651611328125	3.19244384765625
3115.04311913527	0.16162109375	3.2122802734375
3116.04311913275	0.16156005859375	3.21075439453125
3117.04311913022	0.161529541015625	3.19183349609375
3118.0431191277	0.161468505859375	3.1927490234375
