Time (s)	WE(1).Potential (V)	External(1).External 2 (V)
303.686508233265	0.092559814453125	3.40728759765625
304.686508230741	0.09259033203125	3.426513671875
305.686508228216	0.09259033203125	3.42681884765625
306.686508225691	0.092620849609375	3.446044921875
307.686508223166	0.0926513671875	3.42681884765625
308.686508220641	0.0926513671875	3.4271240234375
309.686508218117	0.092681884765625	3.426513671875
310.686508215592	0.09271240234375	3.426513671875
311.686508213067	0.09271240234375	3.42681884765625
312.686508210542	0.092742919921875	3.426513671875
313.686508208018	0.092742919921875	3.44635009765625
314.686508205493	0.0927734375	3.42681884765625
315.686508202968	0.092803955078125	3.42681884765625
316.686508200443	0.09283447265625	3.42742919921875
317.686508197919	0.09283447265625	3.42681884765625
318.686508195394	0.092864990234375	3.44635009765625
319.686508192869	0.0928955078125	3.42681884765625
320.686508190344	0.0928955078125	3.4271240234375
321.68650818782	0.092926025390625	3.4271240234375
322.686508185295	0.09295654296875	3.426513671875
323.68650818277	0.09295654296875	3.42620849609375
324.686508180245	0.092987060546875	3.42620849609375
325.686508177721	0.092987060546875	3.426513671875
326.686508175196	0.093017578125	3.4271240234375
327.686508172671	0.093048095703125	3.42742919921875
328.686508170146	0.093048095703125	3.406982421875
329.686508167622	0.09307861328125	0.050079345703125
330.686508165097	0.093109130859375	0.049957275390625
331.686508162572	0.093109130859375	0.050079345703125
332.686508160047	0.0931396484375	3.4259033203125
333.686508157523	0.0931396484375	3.4454345703125
334.686508154998	0.093170166015625	3.4259033203125
335.686508152473	0.09320068359375	3.4454345703125
336.686508149948	0.09320068359375	3.44635009765625
337.686508147424	0.093231201171875	3.44451904296875
338.686508144899	0.093231201171875	3.4454345703125
339.686508142374	0.09326171875	3.44573974609375
340.686508139849	0.093292236328125	0.05010986328125
341.686508137324	0.093292236328125	0.050140380859375
342.6865081348	0.09332275390625	0.04998779296875
343.686508132275	0.093353271484375	0.0499267578125
344.68650812975	0.093353271484375	0.04998779296875
345.686508127225	0.093353271484375	0.050140380859375
346.686508124701	0.0933837890625	0.050140380859375
347.686508122176	0.0933837890625	0.04998779296875
348.686508119651	0.093414306640625	0.049896240234375
349.686508117126	0.09344482421875	0.050048828125
350.686508114602	0.09344482421875	0.04998779296875
351.686508112077	0.093475341796875	0.050140380859375
352.686508109552	0.093475341796875	0.050048828125
353.686508107027	0.093505859375	0.050048828125
354.686508104503	0.093505859375	0.0501708984375
355.686508101978	0.093536376953125	0.050079345703125
356.686508099453	0.093536376953125	3.36761474609375
357.686508096928	0.09356689453125	3.46466064453125
358.686508094404	0.09356689453125	3.43719482421875
359.686508091879	0.093597412109375	3.42529296875
360.686508089354	0.093597412109375	3.446044921875
361.686508086829	0.0936279296875	3.426513671875
362.686508084305	0.093658447265625	3.4454345703125
363.68650808178	0.09368896484375	3.446044921875
364.686508079255	0.09368896484375	3.4466552734375
365.68650807673	0.093719482421875	3.42620849609375
366.686508074206	0.093719482421875	3.42681884765625
367.686508071681	0.09375	3.44573974609375
368.686508069156	0.09375	3.426513671875
369.686508066631	0.093780517578125	3.446044921875
370.686508064107	0.09381103515625	3.42620849609375
371.686508061582	0.09381103515625	3.44635009765625
372.686508059057	0.093841552734375	3.4063720703125
373.686508056532	0.093841552734375	3.44573974609375
374.686508054008	0.0938720703125	3.46588134765625
375.686508051483	0.093902587890625	3.447265625
376.686508048958	0.093902587890625	3.446044921875
377.686508046433	0.09393310546875	3.44573974609375
378.686508043908	0.09393310546875	3.446044921875
379.686508041384	0.093963623046875	3.42681884765625
380.686508038859	0.093963623046875	3.4466552734375
381.686508036334	0.093963623046875	3.4271240234375
382.686508033809	0.093994140625	3.44635009765625
383.686508031285	0.093994140625	3.44635009765625
384.68650802876	0.094024658203125	3.42681884765625
385.686508026235	0.094024658203125	3.4466552734375
386.68650802371	0.09405517578125	3.44573974609375
387.686508021186	0.09405517578125	3.44635009765625
388.686508018661	0.09405517578125	3.446044921875
389.686508016136	0.094085693359375	3.4271240234375
390.686508013611	0.0941162109375	3.42681884765625
391.686508011087	0.0941162109375	3.44635009765625
392.686508008562	0.094146728515625	3.42681884765625
393.686508006037	0.094146728515625	3.446044921875
394.686508003512	0.094146728515625	3.426513671875
395.686508000988	0.09417724609375	3.446044921875
396.686507998463	0.09417724609375	3.4271240234375
397.686507995938	0.094207763671875	3.44635009765625
398.686507993413	0.094207763671875	3.465576171875
399.686507990889	0.09423828125	3.46588134765625
400.686507988364	0.09423828125	3.4466552734375
401.686507985839	0.094268798828125	3.426513671875
402.686507983314	0.09429931640625	3.4259033203125
403.68650798079	0.09429931640625	3.42620849609375
404.686507978265	0.094329833984375	3.46588134765625
405.68650797574	0.0943603515625	3.42620849609375
406.686507973215	0.0943603515625	3.465576171875
407.686507970691	0.094390869140625	3.44512939453125
408.686507968166	0.094390869140625	3.446044921875
409.686507965641	0.09442138671875	3.446044921875
410.686507963116	0.09442138671875	3.44635009765625
411.686507960591	0.094451904296875	3.42681884765625
412.686507958067	0.094482421875	3.44635009765625
413.686507955542	0.094482421875	3.446044921875
414.686507953017	0.094512939453125	3.44635009765625
415.686507950492	0.094512939453125	3.42681884765625
416.686507947968	0.094512939453125	3.44635009765625
417.686507945443	0.094512939453125	3.4259033203125
418.686507942918	0.09454345703125	3.44573974609375
419.686507940393	0.09454345703125	3.4454345703125
420.686507937869	0.094573974609375	3.426513671875
421.686507935344	0.094573974609375	3.44573974609375
422.686507932819	0.094573974609375	3.44482421875
