Time (s)	WE(1).Potential (V)	External(1).External 2 (V)
3.23876399182291	-0.5194091796875	3.84246826171875
4.23876398929815	-0.506591796875	3.86138916015625
5.23876398677339	-0.32745361328125	3.84246826171875
6.23876398424864	-0.5267333984375	3.86199951171875
7.23876398172388	-0.43975830078125	3.84368896484375
8.23876397919912	-0.45867919921875	3.84246826171875
9.23876397667436	-0.46356201171875	3.84307861328125
10.2387639741496	-0.4644775390625	3.8232421875
11.2387639716248	-0.51544189453125	3.8427734375
12.2387639691001	-0.521240234375	3.84185791015625
13.2387639665753	-0.489501953125	3.8427734375
14.2387639640506	-0.51544189453125	3.841552734375
15.2387639615258	-0.50079345703125	3.84307861328125
16.2387639590011	-0.49835205078125	3.8623046875
17.2387639564763	-0.50994873046875	3.84246826171875
18.2387639539515	-0.5078125	3.8427734375
19.2387639514268	-0.4632568359375	3.84246826171875
20.238763948902	-0.5010986328125	3.841552734375
21.2387639463773	-0.48187255859375	3.822021484375
22.2387639438525	-0.5126953125	3.83270263671875
23.2387639413278	-0.52032470703125	3.86260986328125
24.238763938803	-0.5291748046875	3.8427734375
25.2387639362782	-0.5316162109375	3.8623046875
26.2387639337535	-0.53436279296875	3.8433837890625
27.2387639312287	-0.5413818359375	3.8629150390625
28.238763928704	-0.54229736328125	3.8427734375
29.2387639261792	-0.53802490234375	3.82354736328125
30.2387639236545	-0.5377197265625	3.8427734375
31.2387639211297	-0.53680419921875	3.82354736328125
32.2387639186049	-0.5316162109375	3.861083984375
33.2387639160802	-0.53192138671875	3.84307861328125
34.2387639135554	-0.54290771484375	3.84307861328125
35.2387639110307	-0.53741455078125	3.86260986328125
36.2387639085059	-0.53497314453125	3.82171630859375
37.2387639059812	-0.53192138671875	3.8623046875
38.2387639034564	-0.5224609375	3.86199951171875
39.2387639009316	-0.543212890625	3.84307861328125
40.2387638984069	-0.53680419921875	3.8616943359375
41.2387638958821	-0.5242919921875	3.84307861328125
42.2387638933574	-0.5230712890625	3.84307861328125
43.2387638908326	-0.54168701171875	3.84307861328125
44.2387638883079	-0.52520751953125	3.8421630859375
45.2387638857831	-0.51666259765625	3.8427734375
46.2387638832583	-0.5419921875	3.8433837890625
47.2387638807336	-0.54046630859375	3.8427734375
48.2387638782088	-0.49713134765625	3.8427734375
49.2387638756841	-0.48797607421875	3.8226318359375
50.2387638731593	-0.46600341796875	3.82354736328125
51.2387638706346	-0.43365478515625	3.8232421875
52.2387638681098	-0.460205078125	3.84246826171875
53.238763865585	-0.39947509765625	3.8427734375
54.2387638630603	-0.47393798828125	3.82354736328125
55.2387638605355	-0.4571533203125	3.8232421875
56.2387638580108	-0.3656005859375	3.8238525390625
57.238763855486	-0.526123046875	3.84307861328125
58.2387638529613	-0.4705810546875	3.8433837890625
59.2387638504365	-0.4827880859375	3.84246826171875
60.2387638479117	-0.4443359375	3.8427734375
61.238763845387	-0.46142578125	3.8037109375
62.2387638428622	-0.46173095703125	3.82293701171875
63.2387638403375	-0.46661376953125	3.8421630859375
64.2387638378127	-0.46966552734375	3.86260986328125
65.238763835288	-0.47393798828125	3.8427734375
66.2387638327632	-0.49530029296875	3.84246826171875
67.2387638302384	-0.5096435546875	3.8427734375
68.2387638277137	-0.53131103515625	3.84246826171875
69.2387638251889	-0.5047607421875	3.8433837890625
70.2387638226642	-0.4779052734375	3.84307861328125
71.2387638201394	-0.49346923828125	3.84307861328125
72.2387638176147	-0.23834228515625	3.8427734375
73.2387638150899	-0.3570556640625	3.84246826171875
74.2387638125651	2.5433349609375	3.8421630859375
75.2387638100404	2.1099853515625	3.77899169921875
76.2387638075156	2.20001220703125	3.8031005859375
77.2387638049909	1.5606689453125	3.7786865234375
78.2387638024661	1.04095458984375	3.77777099609375
79.2387637999414	4.0594482421875	3.7591552734375
80.2387637974166	3.0133056640625	3.6224365234375
81.2387637948918	2.59674072265625	3.71856689453125
82.2387637923671	2.34710693359375	3.68194580078125
83.2387637898423	2.19146728515625	3.68133544921875
84.2387637873176	1.77642822265625	2.64556884765625
85.2387637847928	1.884765625	3.56353759765625
86.2387637822681	2.44873046875	3.1329345703125
87.2387637797433	2.42340087890625	2.664794921875
88.2387637772185	1.3525390625	2.547607421875
89.2387637746938	0.73486328125	3.3489990234375
90.238763772169	0.05682373046875	3.4075927734375
91.2387637696443	0.4974365234375	3.4075927734375
92.2387637671195	0.491943359375	3.40576171875
93.2387637645948	0.15582275390625	3.446044921875
94.23876376207	0.46356201171875	3.50494384765625
95.2387637595452	8.30230712890625	3.52203369140625
96.2387637570205	0.384521484375	3.5247802734375
97.2387637544957	1.21917724609375	3.54400634765625
98.238763751971	8.90777587890625	3.50372314453125
99.2387637494462	4.2401123046875	3.54400634765625
100.238763746921	0.163238525390625	3.54400634765625
101.238763744397	0.186798095703125	3.52508544921875
102.238763741872	0.166717529296875	3.525390625
103.238763739347	1.1181640625	3.56353759765625
104.238763736822	2.8717041015625	3.56353759765625
105.238763734298	6.92901611328125	3.5443115234375
106.238763731773	4.26116943359375	3.62213134765625
107.238763729248	1.11724853515625	3.60321044921875
108.238763726723	0.77789306640625	3.60198974609375
109.238763724199	-1.16607666015625	3.623046875
110.238763721674	2.7142333984375	3.62274169921875
111.238763719149	10	3.56170654296875
112.238763716624	8.94287109375	3.56201171875
113.2387637141	7.79022216796875	3.56231689453125
114.238763711575	6.85302734375	3.58154296875
115.23876370905	-7.04193115234375	3.5845947265625
116.238763706525	8.792724609375	3.44482421875
117.238763704001	7.24945068359375	3.56292724609375
118.238763701476	5.96038818359375	3.56292724609375
119.238763698951	5.16815185546875	3.58306884765625
120.238763696426	10	3.56170654296875
121.238763693902	10	3.58123779296875
122.238763691377	9.60662841796875	3.58154296875
123.238763688852	8.58489990234375	3.56201171875
124.238763686327	7.64678955078125	3.5626220703125
125.238763683803	6.4483642578125	3.58123779296875
126.238763681278	6.21429443359375	3.563232421875
127.238763678753	4.9200439453125	3.5626220703125
128.238763676228	5.3326416015625	3.543701171875
129.238763673703	4.9737548828125	3.485107421875
130.238763671179	4.7412109375	3.54248046875
131.238763668654	4.20745849609375	3.48480224609375
132.238763666129	4.06707763671875	3.58306884765625
133.238763663604	3.7396240234375	3.54339599609375
134.23876366108	2.105712890625	3.54461669921875
135.238763658555	3.34991455078125	3.54339599609375
136.23876365603	-3.11309814453125	3.56475830078125
137.238763653505	-2.48870849609375	3.4869384765625
138.238763650981	-4.26513671875	3.34991455078125
139.238763648456	0.5548095703125	3.465576171875
140.238763645931	-3.69415283203125	3.38836669921875
141.238763643406	10	3.404541015625
142.238763640882	8.78631591796875	3.40576171875
143.238763638357	7.36083984375	3.40606689453125
144.238763635832	5.8355712890625	3.44390869140625
145.238763633307	4.37225341796875	3.40576171875
146.238763630783	1.6888427734375	3.40728759765625
147.238763628258	1.89422607421875	3.406982421875
148.238763625733	0.95855712890625	3.3880615234375
149.238763623208	1.07025146484375	3.40667724609375
150.238763620684	1.1236572265625	3.446044921875
151.238763618159	1.53411865234375	3.44635009765625
152.238763615634	2.52227783203125	3.46527099609375
153.238763613109	2.08251953125	3.465576171875
154.238763610585	1.83624267578125	3.4857177734375
155.23876360806	1.6485595703125	3.465576171875
156.238763605535	1.10687255859375	3.46588134765625
157.23876360301	-0.7354736328125	3.44635009765625
158.238763600486	-1.37542724609375	3.4661865234375
159.238763597961	-2.27386474609375	3.4661865234375
160.238763595436	-0.52642822265625	3.446044921875
161.238763592911	-1.4031982421875	3.466796875
162.238763590386	-2.06787109375	3.44635009765625
163.238763587862	-0.4705810546875	3.426513671875
164.238763585337	-0.54046630859375	3.466796875
165.238763582812	-0.6634521484375	3.44573974609375
166.238763580287	0.75408935546875	3.50555419921875
167.238763577763	-2.94708251953125	3.48541259765625
168.238763575238	-4.52239990234375	3.4661865234375
169.238763572713	-1.31683349609375	3.46527099609375
170.238763570188	-0.25634765625	3.367919921875
171.238763567664	8.69354248046875	3.404541015625
172.238763565139	4.40673828125	3.42559814453125
173.238763562614	0.126220703125	3.42742919921875
174.238763560089	0.089447021484375	3.44512939453125
175.238763557565	0.089447021484375	3.46588134765625
176.23876355504	0.0894775390625	3.44635009765625
177.238763552515	0.089508056640625	3.42681884765625
178.23876354999	0.089569091796875	3.42742919921875
179.238763547466	0.089599609375	3.42681884765625
180.238763544941	0.089630126953125	3.42681884765625
181.238763542416	0.08966064453125	3.42681884765625
182.238763539891	0.08966064453125	3.4271240234375
183.238763537367	0.0897216796875	3.42681884765625
184.238763534842	0.0897216796875	3.40728759765625
185.238763532317	0.08978271484375	3.42681884765625
186.238763529792	0.089813232421875	3.42681884765625
187.238763527268	0.08984375	3.40728759765625
188.238763524743	0.08984375	3.40728759765625
189.238763522218	0.089874267578125	3.40728759765625
190.238763519693	0.08990478515625	3.38775634765625
191.238763517169	0.089935302734375	3.4075927734375
192.238763514644	0.0899658203125	3.42681884765625
193.238763512119	0.089996337890625	3.4259033203125
194.238763509594	0.089996337890625	3.4259033203125
195.23876350707	0.09002685546875	3.42681884765625
196.238763504545	0.090057373046875	3.42681884765625
197.23876350202	0.090087890625	3.4063720703125
198.238763499495	0.090118408203125	3.4063720703125
199.23876349697	0.09014892578125	3.42742919921875
200.238763494446	0.090179443359375	3.426513671875
201.238763491921	0.090179443359375	3.426513671875
202.238763489396	0.0902099609375	3.42620849609375
203.238763486871	0.090240478515625	3.42681884765625
204.238763484347	0.09027099609375	3.4271240234375
205.238763481822	0.090301513671875	3.42681884765625
206.238763479297	0.09033203125	3.42620849609375
207.238763476772	0.090362548828125	3.42681884765625
208.238763474248	0.090362548828125	3.42742919921875
209.238763471723	0.09039306640625	3.4271240234375
210.238763469198	0.090423583984375	3.4466552734375
211.238763466673	0.0904541015625	3.4075927734375
212.238763464149	0.090484619140625	3.42681884765625
213.238763461624	0.090484619140625	3.42681884765625
214.238763459099	0.09051513671875	3.44635009765625
215.238763456574	0.090545654296875	3.4466552734375
216.23876345405	0.090576171875	3.40667724609375
217.238763451525	0.090606689453125	3.42681884765625
218.238763449	0.090606689453125	3.42681884765625
219.238763446475	0.09063720703125	3.42681884765625
220.238763443951	0.090667724609375	3.42681884765625
221.238763441426	0.090728759765625	3.4466552734375
222.238763438901	0.090728759765625	3.4271240234375
223.238763436376	0.09075927734375	3.4271240234375
224.238763433852	0.090789794921875	3.42681884765625
225.238763431327	0.0908203125	3.40789794921875
226.238763428802	0.090850830078125	3.42620849609375
227.238763426277	0.09088134765625	3.44696044921875
228.238763423753	0.090911865234375	3.40667724609375
229.238763421228	0.0909423828125	3.40728759765625
230.238763418703	0.090972900390625	3.42681884765625
231.238763416178	0.09100341796875	3.42681884765625
232.238763413653	0.09100341796875	3.42681884765625
233.238763411129	0.091033935546875	3.42681884765625
234.238763408604	0.091064453125	3.44512939453125
235.238763406079	0.091094970703125	3.4271240234375
236.238763403554	0.091094970703125	3.44635009765625
237.23876340103	0.091094970703125	3.4075927734375
238.238763398505	0.09112548828125	3.446044921875
239.23876339598	0.091156005859375	3.42681884765625
240.238763393455	0.0911865234375	3.40667724609375
241.238763390931	0.0911865234375	3.40728759765625
242.238763388406	0.091217041015625	3.4271240234375
243.238763385881	0.09124755859375	3.446044921875
244.238763383356	0.091278076171875	3.4271240234375
245.238763380832	0.09130859375	3.42681884765625
246.238763378307	0.09130859375	3.4259033203125
247.238763375782	0.091339111328125	3.426513671875
248.238763373257	0.09136962890625	3.44635009765625
249.238763370733	0.091400146484375	3.426513671875
250.238763368208	0.091400146484375	3.4259033203125
251.238763365683	0.0914306640625	3.42681884765625
252.238763363158	0.091461181640625	3.4466552734375
253.238763360634	0.091461181640625	3.42681884765625
254.238763358109	0.09149169921875	3.42681884765625
255.238763355584	0.091522216796875	3.426513671875
256.238763353059	0.091522216796875	3.42681884765625
257.238763350535	0.091552734375	3.4271240234375
258.23876334801	0.091583251953125	3.4271240234375
259.238763345485	0.09161376953125	3.426513671875
260.23876334296	0.091644287109375	3.42681884765625
261.238763340436	0.091644287109375	3.42681884765625
262.238763337911	0.0916748046875	3.40728759765625
263.238763335386	0.091705322265625	3.426513671875
264.238763332861	0.09173583984375	3.44482421875
265.238763330336	0.09173583984375	3.426513671875
266.238763327812	0.091766357421875	3.42681884765625
267.238763325287	0.091796875	3.4075927734375
268.238763322762	0.091827392578125	3.44635009765625
269.238763320237	0.091827392578125	3.4466552734375
270.238763317713	0.09185791015625	3.44635009765625
271.238763315188	0.091888427734375	3.42681884765625
272.238763312663	0.0919189453125	3.4271240234375
273.238763310138	0.091949462890625	3.40728759765625
274.238763307614	0.091949462890625	3.42742919921875
275.238763305089	0.09197998046875	3.4271240234375
276.238763302564	0.092010498046875	3.426513671875
277.238763300039	0.092041015625	3.42681884765625
278.238763297515	0.092041015625	3.42681884765625
279.23876329499	0.092071533203125	3.42742919921875
280.238763292465	0.092071533203125	3.4259033203125
281.23876328994	0.09210205078125	3.4075927734375
282.238763287416	0.09210205078125	3.40789794921875
283.238763284891	0.092132568359375	3.42620849609375
284.238763282366	0.0921630859375	3.42681884765625
285.238763279841	0.092193603515625	3.4259033203125
286.238763277317	0.092193603515625	3.42681884765625
287.238763274792	0.09222412109375	3.426513671875
288.238763272267	0.09222412109375	3.4454345703125
289.238763269742	0.092254638671875	3.42681884765625
290.238763267218	0.09228515625	3.4271240234375
291.238763264693	0.09228515625	3.42681884765625
292.238763262168	0.092315673828125	3.42681884765625
293.238763259643	0.09234619140625	3.42681884765625
294.238763257119	0.092376708984375	3.4271240234375
295.238763254594	0.092376708984375	3.4466552734375
296.238763252069	0.0924072265625	3.42681884765625
297.238763249544	0.092437744140625	3.446044921875
298.23876324702	0.092437744140625	3.44635009765625
299.238763244495	0.09246826171875	3.426513671875
300.23876324197	0.092498779296875	3.406982421875
301.238763239445	0.092498779296875	3.42681884765625
302.23876323692	0.092529296875	3.42681884765625
