Time (s)	WE(1).Potential (V)
341.956222136644	-0.52642822265625
342.956222134119	-0.481719970703125
343.956222131594	-0.44879150390625
344.956222129069	-0.4266357421875
345.956222126545	-0.413726806640625
346.95622212402	-0.403411865234375
347.956222121495	-0.39361572265625
348.95622211897	-0.38433837890625
349.956222116445	-0.375640869140625
350.956222113921	-0.3675537109375
351.956222111396	-0.360076904296875
352.956222108871	-0.353057861328125
353.956222106346	-0.34649658203125
354.956222103822	-0.34033203125
355.956222101297	-0.334503173828125
356.956222098772	-0.3289794921875
357.956222096247	-0.32379150390625
358.956222093723	-0.318817138671875
359.956222091198	-0.314117431640625
360.956222088673	-0.309661865234375
361.956222086148	-0.305389404296875
362.956222083624	-0.3013916015625
363.956222081099	-0.297515869140625
364.956222078574	-0.293792724609375
365.956222076049	-0.291015625
366.956222073525	-0.287994384765625
367.956222071	-0.28472900390625
368.956222068475	-0.281524658203125
369.95622206595	-0.278472900390625
370.956222063426	-0.275482177734375
371.956222060901	-0.272705078125
372.956222058376	-0.270050048828125
373.956222055851	-0.26751708984375
374.956222053327	-0.265045166015625
375.956222050802	-0.262725830078125
376.956222048277	-0.26043701171875
377.956222045752	-0.25830078125
378.956222043228	-0.2562255859375
379.956222040703	-0.254241943359375
380.956222038178	-0.25225830078125
381.956222035653	-0.2503662109375
382.956222033128	-0.248504638671875
383.956222030604	-0.246673583984375
384.956222028079	-0.244842529296875
385.956222025554	-0.243072509765625
386.956222023029	-0.241363525390625
387.956222020505	-0.239654541015625
388.95622201798	-0.238006591796875
389.956222015455	-0.236328125
390.95622201293	-0.234619140625
391.956222010406	-0.23297119140625
392.956222007881	-0.23126220703125
393.956222005356	-0.229583740234375
394.956222002831	-0.227874755859375
395.956222000307	-0.226104736328125
396.956221997782	-0.224273681640625
397.956221995257	-0.222412109375
398.956221992732	-0.220458984375
399.956221990208	-0.218597412109375
400.956221987683	-0.216583251953125
401.956221985158	-0.214630126953125
402.956221982633	-0.212677001953125
403.956221980109	-0.210693359375
404.956221977584	-0.208709716796875
405.956221975059	-0.206634521484375
406.956221972534	-0.205596923828125
407.95622197001	-0.20330810546875
408.956221967485	-0.20098876953125
409.95622196496	-0.198638916015625
410.956221962435	-0.196380615234375
411.956221959911	-0.194122314453125
412.956221957386	-0.19183349609375
413.956221954861	-0.1895751953125
414.956221952336	-0.1873779296875
415.956221949811	-0.185211181640625
416.956221947287	-0.18310546875
417.956221944762	-0.180999755859375
418.956221942237	-0.17889404296875
419.956221939712	-0.17681884765625
420.956221937188	-0.1748046875
421.956221934663	-0.172882080078125
422.956221932138	-0.170867919921875
423.956221929613	-0.16888427734375
424.956221927089	-0.166900634765625
425.956221924564	-0.16497802734375
426.956221922039	-0.1630859375
427.956221919514	-0.161163330078125
428.95622191699	-0.159454345703125
429.956221914465	-0.157440185546875
430.95622191194	-0.15557861328125
431.956221909415	-0.153839111328125
432.956221906891	-0.15191650390625
433.956221904366	-0.150115966796875
434.956221901841	-0.148345947265625
435.956221899316	-0.1466064453125
436.956221896792	-0.144866943359375
437.956221894267	-0.1431884765625
438.956221891742	-0.1414794921875
439.956221889217	-0.1397705078125
440.956221886693	-0.138092041015625
441.956221884168	-0.136444091796875
442.956221881643	-0.134796142578125
443.956221879118	-0.1331787109375
444.956221876594	-0.13153076171875
445.956221874069	-0.129913330078125
446.956221871544	-0.1282958984375
447.956221869019	-0.126708984375
448.956221866495	-0.125091552734375
449.95622186397	-0.12353515625
450.956221861445	-0.121978759765625
451.95622185892	-0.12042236328125
452.956221856395	-0.118865966796875
453.956221853871	-0.11737060546875
454.956221851346	-0.1158447265625
455.956221848821	-0.1142578125
456.956221846296	-0.11273193359375
457.956221843772	-0.111236572265625
458.956221841247	-0.109771728515625
459.956221838722	-0.108306884765625
460.956221836197	-0.106842041015625
461.956221833673	-0.1053466796875
462.956221831148	-0.103912353515625
463.956221828623	-0.102508544921875
464.956221826098	-0.10107421875
465.956221823574	-0.09967041015625
466.956221821049	-0.0982666015625
467.956221818524	-0.096893310546875
468.956221815999	-0.095489501953125
469.956221813475	-0.0941162109375
470.95622181095	-0.0927734375
471.956221808425	-0.091400146484375
472.9562218059	-0.090087890625
473.956221803376	-0.0887451171875
474.956221800851	-0.08740234375
475.956221798326	-0.08612060546875
476.956221795801	-0.0848388671875
477.956221793277	-0.08355712890625
478.956221790752	-0.082275390625
479.956221788227	-0.08099365234375
480.956221785702	-0.07977294921875
481.956221783178	-0.07879638671875
482.956221780653	-0.077484130859375
483.956221778128	-0.076141357421875
484.956221775603	-0.074920654296875
485.956221773078	-0.07366943359375
486.956221770554	-0.072662353515625
487.956221768029	-0.071380615234375
488.956221765504	-0.070220947265625
489.956221762979	-0.06903076171875
490.956221760455	-0.06787109375
491.95622175793	-0.066741943359375
492.956221755405	-0.065582275390625
493.95622175288	-0.06451416015625
494.956221750356	-0.06341552734375
495.956221747831	-0.06231689453125
496.956221745306	-0.061248779296875
497.956221742781	-0.060211181640625
498.956221740257	-0.05914306640625
499.956221737732	-0.05810546875
500.956221735207	-0.057037353515625
501.956221732682	-0.055999755859375
502.956221730158	-0.05499267578125
503.956221727633	-0.053955078125
504.956221725108	-0.052947998046875
505.956221722583	-0.05194091796875
506.956221720059	-0.05096435546875
507.956221717534	-0.04998779296875
508.956221715009	-0.04912109375
509.956221712484	-0.0481048583984375
510.95622170996	-0.0471343994140625
511.956221707435	-0.046319580078125
512.95622170491	-0.0452392578125
513.956221702385	-0.044268798828125
514.956221699861	-0.043316650390625
515.956221697336	-0.0423797607421875
516.956221694811	-0.04149169921875
517.956221692286	-0.040606689453125
518.956221689761	-0.039715576171875
519.956221687237	-0.03883056640625
520.956221684712	-0.0379425048828125
521.956221682187	-0.0371002197265625
522.956221679662	-0.036187744140625
523.956221677138	-0.0356292724609375
524.956221674613	-0.034521484375
525.956221672088	-0.0336639404296875
526.956221669563	-0.0328155517578125
527.956221667039	-0.0319854736328125
528.956221664514	-0.031146240234375
529.956221661989	-0.0303070068359375
530.956221659464	-0.029486083984375
531.95622165694	-0.0286834716796875
532.956221654415	-0.0282623291015625
533.95622165189	-0.0271331787109375
534.956221649365	-0.0263153076171875
535.956221646841	-0.02552490234375
536.956221644316	-0.024749755859375
537.956221641791	-0.0240875244140625
538.956221639266	-0.023138427734375
539.956221636742	-0.0223602294921875
540.956221634217	-0.0216278076171875
541.956221631692	-0.020880126953125
542.956221629167	-0.0201324462890625
543.956221626643	-0.0194122314453125
544.956221624118	-0.0186676025390625
545.956221621593	-0.0179168701171875
546.956221619068	-0.0171478271484375
547.956221616544	-0.016357421875
548.956221614019	-0.0156036376953125
549.956221611494	-0.014886474609375
550.956221608969	-0.014178466796875
551.956221606445	-0.0134613037109375
552.95622160392	-0.01285400390625
553.956221601395	-0.0121063232421875
554.95622159887	-0.01142578125
555.956221596345	-0.0107879638671875
556.956221593821	-0.0101318359375
557.956221591296	-0.0094940185546875
558.956221588771	-0.00884094238281249
559.956221586246	-0.00816650390625
560.956221583722	-0.00751953125
561.956221581197	-0.0068634033203125
562.956221578672	-0.0062530517578125
563.956221576147	-0.0056182861328125
564.956221573623	-0.00498352050781251
565.956221571098	-0.004364013671875
566.956221568573	-0.00376281738281251
567.956221566048	-0.00315246582031251
568.956221563524	-0.00256958007812499
569.956221560999	-0.001971435546875
570.956221558474	-0.0013885498046875
571.956221555949	-0.000817871093750006
572.956221553425	-0.0005340576171875
573.9562215509	0.000216674804687497
574.956221548375	0.000836181640625003
575.95622154585	0.00139770507812501
576.956221543326	0.00194702148437501
577.956221540801	0.00247802734374999
578.956221538276	0.0030029296875
579.956221535751	0.00348510742187499
580.956221533227	0.00390625
581.956221530702	0.00446472167968751
582.956221528177	0.005023193359375
583.956221525652	0.005535888671875
584.956221523128	0.00599060058593751
585.956221520603	0.0064727783203125
586.956221518078	0.00694580078125
587.956221515553	0.0074005126953125
588.956221513028	0.0076324462890625
589.956221510504	0.0082366943359375
590.956221507979	0.00872192382812501
591.956221505454	0.00917663574218749
592.956221502929	0.00962219238281251
593.956221500405	0.01004638671875
594.95622149788	0.0104644775390625
595.956221495355	0.0108856201171875
596.95622149283	0.0112823486328125
597.956221490306	0.0116790771484375
598.956221487781	0.0120849609375
599.956221485256	0.0124603271484375
600.956221482731	0.0128509521484375
601.956221480207	0.0132537841796875
602.956221477682	0.0136383056640625
603.956221475157	0.013946533203125
604.956221472632	0.0143890380859375
605.956221470108	0.0147491455078125
606.956221467583	0.0151397705078125
607.956221465058	0.01551513671875
608.956221462533	0.0158782958984375
609.956221460009	0.0162261962890625
610.956221457484	0.0165924072265625
611.956221454959	0.0169403076171875
612.956221452434	0.01728515625
613.95622144991	0.017633056640625
614.956221447385	0.0179779052734375
615.95622144486	0.018310546875
616.956221442335	0.018670654296875
617.956221439811	0.01898193359375
618.956221437286	0.0193145751953125
619.956221434761	0.01964111328125
620.956221432236	0.01998291015625
621.956221429711	0.020318603515625
622.956221427187	0.0206512451171875
623.956221424662	0.020977783203125
624.956221422137	0.0212890625
625.956221419612	0.0216217041015625
626.956221417088	0.0219329833984375
627.956221414563	0.022247314453125
628.956221412038	0.022216796875
629.956221409513	0.0227996826171875
630.956221406989	0.0231903076171875
631.956221404464	0.02354736328125
632.956221401939	0.0239227294921875
633.956221399414	0.0243133544921875
634.95622139689	0.0246856689453125
635.956221394365	0.0250762939453125
636.95622139184	0.0254638671875
637.956221389315	0.0257781982421875
638.956221386791	0.026171875
639.956221384266	0.02645263671875
640.956221381741	0.0267730712890625
641.956221379216	0.027154541015625
642.956221376692	0.0275238037109375
643.956221374167	0.027880859375
644.956221371642	0.0282379150390625
645.956221369117	0.028594970703125
646.956221366593	0.0289459228515625
647.956221364068	0.02930908203125
648.956221361543	0.0296539306640625
649.956221359018	0.029986572265625
650.956221356494	0.0301788330078125
651.956221353969	0.03060302734375
652.956221351444	0.0310394287109375
653.956221348919	0.0316009521484375
654.956221346395	0.0321319580078125
655.95622134387	0.032598876953125
656.956221341345	0.033050537109375
657.95622133882	0.0334991455078125
658.956221336295	0.0339202880859375
659.956221333771	0.0343292236328125
660.956221331246	0.0347259521484375
661.956221328721	0.0350860595703125
662.956221326196	0.0354766845703125
663.956221323672	0.0358978271484375
664.956221321147	0.0363037109375
665.956221318622	0.0367218017578125
666.956221316097	0.03712158203125
667.956221313573	0.0375244140625
668.956221311048	0.037957763671875
669.956221308523	0.0383636474609375
670.956221305998	0.038763427734375
671.956221303474	0.0391876220703125
672.956221300949	0.03958740234375
673.956221298424	0.040008544921875
674.956221295899	0.040435791015625
675.956221293375	0.040850830078125
676.95622129085	0.041278076171875
677.956221288325	0.04169921875
678.9562212858	0.0421356201171875
679.956221283276	0.04254150390625
680.956221280751	0.0429779052734375
681.956221278226	0.0433929443359375
682.956221275701	0.0438507080078125
683.956221273177	0.0442657470703125
684.956221270652	0.0446990966796875
685.956221268127	0.0451385498046875
686.956221265602	0.0456024169921875
687.956221263078	0.0460723876953125
688.956221260553	0.0465423583984375
689.956221258028	0.0469940185546875
690.956221255503	0.04744873046875
691.956221252978	0.04791259765625
692.956221250454	0.04837646484375
693.956221247929	0.048846435546875
694.956221245404	0.0493133544921875
695.956221242879	0.049774169921875
696.956221240355	0.050262451171875
697.95622123783	0.050750732421875
698.956221235305	0.05120849609375
699.95622123278	0.05157470703125
700.956221230256	0.05194091796875
701.956221227731	0.052276611328125
702.956221225206	0.052642822265625
703.956221222681	0.053070068359375
704.956221220157	0.05352783203125
705.956221217632	0.05401611328125
706.956221215107	0.054473876953125
707.956221212582	0.054931640625
708.956221210058	0.055419921875
709.956221207533	0.055877685546875
710.956221205008	0.056365966796875
711.956221202483	0.056854248046875
712.956221199959	0.057342529296875
713.956221197434	0.057830810546875
714.956221194909	0.058319091796875
715.956221192384	0.05877685546875
716.95622118986	0.05926513671875
717.956221187335	0.059722900390625
718.95622118481	0.060211181640625
719.956221182285	0.060699462890625
720.956221179761	0.0611572265625
721.956221177236	0.0616455078125
722.956221174711	0.0621337890625
723.956221172186	0.062591552734375
724.956221169661	0.063079833984375
725.956221167137	0.06365966796875
726.956221164612	0.064239501953125
727.956221162087	0.06475830078125
728.956221159562	0.06524658203125
729.956221157038	0.06573486328125
730.956221154513	0.066253662109375
731.956221151988	0.0667724609375
732.956221149463	0.0672607421875
733.956221146939	0.067840576171875
734.956221144414	0.0684814453125
735.956221141889	0.069091796875
736.956221139364	0.06951904296875
737.95622113684	0.070068359375
738.956221134315	0.070556640625
739.95622113179	0.071044921875
740.956221129265	0.071502685546875
741.956221126741	0.07196044921875
742.956221124216	0.072418212890625
743.956221121691	0.072906494140625
744.956221119166	0.0733642578125
745.956221116642	0.073883056640625
746.956221114117	0.074432373046875
747.956221111592	0.074951171875
748.956221109067	0.075469970703125
749.956221106543	0.07598876953125
750.956221104018	0.0765380859375
751.956221101493	0.077056884765625
752.956221098968	0.077545166015625
753.956221096444	0.078033447265625
754.956221093919	0.0784912109375
755.956221091394	0.078948974609375
756.956221088869	0.079376220703125
757.956221086345	0.079803466796875
758.95622108382	0.08026123046875
759.956221081295	0.080718994140625
760.95622107877	0.081146240234375
