Time (s)	WE(1).Potential (V)
2.04121799484642	0.523681640625
3.04121799232166	0.52398681640625
4.04121798979691	0.5242919921875
5.04121798727215	0.52459716796875
6.04121798474739	0.52490234375
7.04121798222263	0.52520751953125
8.04121797969788	0.5255126953125
9.04121797717312	0.52581787109375
10.0412179746484	0.526123046875
11.0412179721236	0.52642822265625
12.0412179695988	0.5267333984375
13.0412179670741	0.52734375
14.0412179645493	0.52734375
15.0412179620246	0.52764892578125
16.0412179594998	0.5279541015625
17.0412179569751	0.52825927734375
18.0412179544503	0.528564453125
19.0412179519255	0.52886962890625
20.0412179494008	0.5291748046875
21.041217946876	0.52947998046875
22.0412179443513	0.52978515625
23.0412179418265	0.53009033203125
24.0412179393018	0.5303955078125
25.041217936777	0.53070068359375
26.0412179342522	0.531005859375
27.0412179317275	0.53131103515625
28.0412179292027	0.5316162109375
29.041217926678	0.53192138671875
30.0412179241532	0.5322265625
31.0412179216285	0.53253173828125
32.0412179191037	0.5328369140625
33.0412179165789	0.53314208984375
34.0412179140542	0.533447265625
35.0412179115294	0.53375244140625
36.0412179090047	0.5340576171875
37.0412179064799	0.53436279296875
38.0412179039552	0.53466796875
39.0412179014304	0.53497314453125
40.0412178989056	0.5352783203125
41.0412178963809	0.53558349609375
42.0412178938561	0.535888671875
43.0412178913314	0.53619384765625
44.0412178888066	0.53619384765625
45.0412178862819	0.5364990234375
46.0412178837571	0.53680419921875
47.0412178812323	0.537109375
48.0412178787076	0.53741455078125
49.0412178761828	0.5377197265625
50.0412178736581	0.53802490234375
51.0412178711333	0.538330078125
52.0412178686086	0.538330078125
53.0412178660838	0.53863525390625
54.041217863559	0.5389404296875
55.0412178610343	0.53924560546875
56.0412178585095	0.53955078125
57.0412178559848	0.53955078125
58.04121785346	0.53985595703125
59.0412178509353	0.5401611328125
60.0412178484105	0.54046630859375
61.0412178458857	0.540771484375
62.041217843361	0.540771484375
63.0412178408362	0.54107666015625
64.0412178383115	0.5413818359375
65.0412178357867	0.54168701171875
66.041217833262	0.5419921875
67.0412178307372	0.5419921875
68.0412178282124	0.54229736328125
69.0412178256877	0.5426025390625
70.0412178231629	0.54290771484375
71.0412178206382	0.54290771484375
72.0412178181134	0.543212890625
73.0412178155887	0.54351806640625
74.0412178130639	0.54351806640625
75.0412178105391	0.5438232421875
76.0412178080144	0.54412841796875
77.0412178054896	0.54412841796875
78.0412178029649	0.54443359375
79.0412178004401	0.54443359375
80.0412177979154	0.54473876953125
81.0412177953906	0.5450439453125
82.0412177928658	0.5450439453125
83.0412177903411	0.54534912109375
84.0412177878163	0.545654296875
85.0412177852916	0.545654296875
86.0412177827668	0.54595947265625
87.0412177802421	0.5462646484375
88.0412177777173	0.5462646484375
89.0412177751925	0.54656982421875
90.0412177726678	0.54656982421875
91.041217770143	0.546875
92.0412177676183	0.54718017578125
93.0412177650935	0.54718017578125
94.0412177625687	0.5474853515625
95.041217760044	0.5474853515625
96.0412177575192	0.54779052734375
97.0412177549945	0.548095703125
98.0412177524697	0.548095703125
99.041217749945	0.54840087890625
100.04121774742	0.54840087890625
101.041217744895	0.5487060546875
102.041217742371	0.5487060546875
103.041217739846	0.54901123046875
104.041217737321	0.54901123046875
105.041217734796	0.54931640625
106.041217732272	0.54962158203125
107.041217729747	0.54962158203125
108.041217727222	0.5499267578125
109.041217724697	0.5499267578125
110.041217722173	0.55023193359375
111.041217719648	0.55023193359375
112.041217717123	0.550537109375
113.041217714598	0.550537109375
114.041217712074	0.55084228515625
115.041217709549	0.55084228515625
116.041217707024	0.5511474609375
117.041217704499	0.55145263671875
118.041217701975	0.55145263671875
119.04121769945	0.5517578125
120.041217696925	0.5517578125
121.0412176944	0.55206298828125
122.041217691876	0.55206298828125
123.041217689351	0.5523681640625
124.041217686826	0.5523681640625
125.041217684301	0.55267333984375
126.041217681777	0.55267333984375
127.041217679252	0.552978515625
128.041217676727	0.552978515625
129.041217674202	0.55328369140625
130.041217671677	0.55328369140625
131.041217669153	0.5535888671875
132.041217666628	0.55389404296875
133.041217664103	0.55389404296875
134.041217661578	0.55419921875
135.041217659054	0.55450439453125
136.041217656529	0.55450439453125
137.041217654004	0.55450439453125
138.041217651479	0.5548095703125
139.041217648955	0.5548095703125
140.04121764643	0.55511474609375
141.041217643905	0.55511474609375
142.04121764138	0.555419921875
143.041217638856	0.555419921875
144.041217636331	0.55572509765625
145.041217633806	0.55572509765625
146.041217631281	0.5560302734375
147.041217628757	0.5560302734375
148.041217626232	0.55633544921875
149.041217623707	0.55633544921875
150.041217621182	0.556640625
151.041217618658	0.556640625
152.041217616133	0.55694580078125
153.041217613608	0.55694580078125
154.041217611083	0.5572509765625
155.041217608559	0.5572509765625
156.041217606034	0.55755615234375
157.041217603509	0.55755615234375
158.041217600984	0.557861328125
159.04121759846	0.557861328125
160.041217595935	0.55816650390625
161.04121759341	0.55816650390625
162.041217590885	0.55816650390625
163.04121758836	0.5584716796875
164.041217585836	0.5584716796875
165.041217583311	0.55877685546875
166.041217580786	0.55877685546875
167.041217578261	0.55908203125
168.041217575737	0.55908203125
169.041217573212	0.55938720703125
170.041217570687	0.55938720703125
171.041217568162	0.55938720703125
172.041217565638	0.5596923828125
173.041217563113	0.5596923828125
174.041217560588	0.55999755859375
175.041217558063	0.55999755859375
176.041217555539	0.560302734375
177.041217553014	0.560302734375
178.041217550489	0.56060791015625
179.041217547964	0.5609130859375
180.04121754544	0.5609130859375
181.041217542915	0.56121826171875
