Time (s)	WE(1).Potential (V)
5474.31545617868	0.55938720703125
5475.31545617616	0.55755615234375
5476.31545617363	0.5560302734375
5477.31545617111	0.55450439453125
5478.31545616858	0.55328369140625
5479.31545616606	0.55206298828125
5480.31545616353	0.55084228515625
5481.31545616101	0.54962158203125
5482.31545615848	0.54840087890625
5483.31545615596	0.5474853515625
5484.31545615343	0.54656982421875
5485.31545615091	0.545654296875
5486.31545614839	0.54473876953125
5487.31545614586	0.5438232421875
5488.31545614334	0.543212890625
5489.31545614081	0.54229736328125
5490.31545613829	0.54168701171875
5491.31545613576	0.54107666015625
5492.31545613324	0.54046630859375
5493.31545613071	0.53985595703125
5494.31545612819	0.53924560546875
5495.31545612566	0.53863525390625
5496.31545612314	0.53802490234375
5497.31545612061	0.5377197265625
5498.31545611809	0.537109375
5499.31545611556	0.53680419921875
5500.31545611304	0.53619384765625
5501.31545611051	0.535888671875
5502.31545610799	0.53558349609375
5503.31545610546	0.5352783203125
5504.31545610294	0.53466796875
5505.31545610041	0.53436279296875
5506.31545609789	0.5340576171875
5507.31545609537	0.53375244140625
5508.31545609284	0.533447265625
5509.31545609032	0.53314208984375
5510.31545608779	0.53314208984375
5511.31545608527	0.5328369140625
5512.31545608274	0.53253173828125
5513.31545608022	0.5322265625
5514.31545607769	0.5322265625
5515.31545607517	0.53192138671875
5516.31545607264	0.5316162109375
5517.31545607012	0.5316162109375
5518.31545606759	0.53131103515625
5519.31545606507	0.53131103515625
5520.31545606254	0.531005859375
5521.31545606002	0.531005859375
5522.31545605749	0.53070068359375
5523.31545605497	0.53070068359375
5524.31545605244	0.5303955078125
5525.31545604992	0.5303955078125
5526.31545604739	0.53009033203125
5527.31545604487	0.53009033203125
5528.31545604235	0.53009033203125
5529.31545603982	0.52978515625
5530.3154560373	0.52978515625
5531.31545603477	0.52978515625
5532.31545603225	0.52947998046875
5533.31545602972	0.52947998046875
5534.3154560272	0.52947998046875
5535.31545602467	0.5291748046875
5536.31545602215	0.5291748046875
5537.31545601962	0.5291748046875
5538.3154560171	0.5291748046875
5539.31545601457	0.5291748046875
5540.31545601205	0.52886962890625
5541.31545600952	0.52886962890625
5542.315456007	0.52886962890625
5543.31545600447	0.52886962890625
5544.31545600195	0.528564453125
5545.31545599942	0.528564453125
5546.3154559969	0.528564453125
5547.31545599438	0.528564453125
5548.31545599185	0.528564453125
5549.31545598933	0.528564453125
5550.3154559868	0.528564453125
5551.31545598428	0.528564453125
5552.31545598175	0.52825927734375
5553.31545597923	0.52825927734375
5554.3154559767	0.52825927734375
5555.31545597418	0.52825927734375
5556.31545597165	0.52825927734375
5557.31545596913	0.52825927734375
5558.3154559666	0.52825927734375
5559.31545596408	0.52825927734375
5560.31545596155	0.52825927734375
5561.31545595903	0.52825927734375
5562.3154559565	0.52825927734375
5563.31545595398	0.52825927734375
5564.31545595145	0.5279541015625
5565.31545594893	0.5279541015625
5566.3154559464	0.5279541015625
5567.31545594388	0.5279541015625
5568.31545594136	0.5279541015625
5569.31545593883	0.5279541015625
5570.31545593631	0.5279541015625
5571.31545593378	0.5279541015625
5572.31545593126	0.5279541015625
5573.31545592873	0.52764892578125
5574.31545592621	0.52764892578125
5575.31545592368	0.52764892578125
5576.31545592116	0.52764892578125
5577.31545591863	0.52764892578125
5578.31545591611	0.52764892578125
5579.31545591358	0.52764892578125
5580.31545591106	0.52764892578125
5581.31545590853	0.52764892578125
5582.31545590601	0.52764892578125
5583.31545590348	0.52764892578125
5584.31545590096	0.52764892578125
5585.31545589843	0.52764892578125
5586.31545589591	0.52764892578125
5587.31545589338	0.52764892578125
5588.31545589086	0.52764892578125
5589.31545588834	0.52764892578125
5590.31545588581	0.52764892578125
5591.31545588329	0.52764892578125
5592.31545588076	0.52764892578125
5593.31545587824	0.52764892578125
5594.31545587571	0.52764892578125
5595.31545587319	0.52764892578125
5596.31545587066	0.52764892578125
5597.31545586814	0.52764892578125
5598.31545586561	0.52764892578125
5599.31545586309	0.52764892578125
5600.31545586056	0.52764892578125
5601.31545585804	0.52764892578125
5602.31545585551	0.52764892578125
5603.31545585299	0.52764892578125
5604.31545585046	0.52764892578125
5605.31545584794	0.52764892578125
5606.31545584541	0.52764892578125
5607.31545584289	0.52764892578125
5608.31545584036	0.52764892578125
5609.31545583784	0.52764892578125
5610.31545583532	0.52764892578125
5611.31545583279	0.52764892578125
5612.31545583027	0.52764892578125
5613.31545582774	0.52764892578125
5614.31545582522	0.52764892578125
5615.31545582269	0.52764892578125
5616.31545582017	0.52764892578125
5617.31545581764	0.52764892578125
5618.31545581512	0.52764892578125
5619.31545581259	0.52764892578125
5620.31545581007	0.52764892578125
5621.31545580754	0.52764892578125
5622.31545580502	0.52764892578125
5623.31545580249	0.52764892578125
5624.31545579997	0.52764892578125
5625.31545579744	0.52764892578125
5626.31545579492	0.52764892578125
5627.31545579239	0.52764892578125
5628.31545578987	0.52764892578125
5629.31545578734	0.52764892578125
5630.31545578482	0.52764892578125
5631.3154557823	0.52764892578125
5632.31545577977	0.52764892578125
5633.31545577725	0.52764892578125
5634.31545577472	0.52764892578125
5635.3154557722	0.52764892578125
5636.31545576967	0.52764892578125
5637.31545576715	0.52764892578125
5638.31545576462	0.5279541015625
5639.3154557621	0.5279541015625
5640.31545575957	0.5279541015625
5641.31545575705	0.5279541015625
5642.31545575452	0.5279541015625
5643.315455752	0.5279541015625
5644.31545574947	0.5279541015625
5645.31545574695	0.5279541015625
5646.31545574442	0.5279541015625
5647.3154557419	0.5279541015625
5648.31545573937	0.5279541015625
5649.31545573685	0.5279541015625
5650.31545573433	0.5279541015625
5651.3154557318	0.5279541015625
5652.31545572928	0.5279541015625
5653.31545572675	0.5279541015625
