Time (s)	WE(1).Potential (V)
422.972795932096	-0.51849365234375
423.972795929572	-0.496368408203125
424.972795927047	-0.48046875
425.972795924522	-0.46771240234375
426.972795921997	-0.456878662109375
427.972795919473	-0.447357177734375
428.972795916948	-0.4388427734375
429.972795914423	-0.431060791015625
430.972795911898	-0.42388916015625
431.972795909374	-0.41717529296875
432.972795906849	-0.410919189453125
433.972795904324	-0.40496826171875
434.972795901799	-0.3992919921875
435.972795899275	-0.393890380859375
436.97279589675	-0.388702392578125
437.972795894225	-0.3836669921875
438.9727958917	-0.3787841796875
439.972795889175	-0.3740234375
440.972795886651	-0.369354248046875
441.972795884126	-0.364776611328125
442.972795881601	-0.3602294921875
443.972795879076	-0.35577392578125
444.972795876552	-0.351318359375
445.972795874027	-0.346923828125
446.972795871502	-0.342529296875
447.972795868977	-0.338165283203125
448.972795866453	-0.33380126953125
449.972795863928	-0.32940673828125
450.972795861403	-0.324981689453125
451.972795858878	-0.320587158203125
452.972795856354	-0.316131591796875
453.972795853829	-0.311676025390625
454.972795851304	-0.30718994140625
455.972795848779	-0.30267333984375
456.972795846255	-0.298095703125
457.97279584373	-0.29351806640625
458.972795841205	-0.28887939453125
459.97279583868	-0.28424072265625
460.972795836156	-0.27960205078125
461.972795833631	-0.274932861328125
462.972795831106	-0.270263671875
463.972795828581	-0.26556396484375
464.972795826057	-0.26092529296875
465.972795823532	-0.256317138671875
466.972795821007	-0.251708984375
467.972795818482	-0.247161865234375
468.972795815958	-0.24267578125
469.972795813433	-0.238250732421875
470.972795810908	-0.233917236328125
471.972795808383	-0.22967529296875
472.972795805858	-0.22552490234375
473.972795803334	-0.221435546875
474.972795800809	-0.217498779296875
475.972795798284	-0.213653564453125
476.972795795759	-0.209930419921875
477.972795793235	-0.206329345703125
478.97279579071	-0.20281982421875
479.972795788185	-0.199432373046875
480.97279578566	-0.196136474609375
481.972795783136	-0.1929931640625
482.972795780611	-0.189910888671875
483.972795778086	-0.18695068359375
484.972795775561	-0.18408203125
485.972795773037	-0.181304931640625
486.972795770512	-0.178619384765625
487.972795767987	-0.176025390625
488.972795765462	-0.17352294921875
489.972795762938	-0.17108154296875
490.972795760413	-0.168701171875
491.972795757888	-0.166412353515625
492.972795755363	-0.1641845703125
493.972795752839	-0.162017822265625
494.972795750314	-0.159881591796875
495.972795747789	-0.1578369140625
496.972795745264	-0.155853271484375
497.97279574274	-0.15386962890625
498.972795740215	-0.151947021484375
499.97279573769	-0.15008544921875
500.972795735165	-0.148223876953125
501.972795732641	-0.14642333984375
502.972795730116	-0.1446533203125
503.972795727591	-0.142913818359375
504.972795725066	-0.141204833984375
505.972795722541	-0.139495849609375
506.972795720017	-0.1378173828125
507.972795717492	-0.13616943359375
508.972795714967	-0.134521484375
509.972795712442	-0.132904052734375
510.972795709918	-0.131317138671875
511.972795707393	-0.129730224609375
512.972795704868	-0.128143310546875
513.972795702343	-0.1265869140625
514.972795699819	-0.125
515.972795697294	-0.12347412109375
516.972795694769	-0.1219482421875
517.972795692244	-0.120391845703125
518.97279568972	-0.118865966796875
519.972795687195	-0.1173095703125
520.97279568467	-0.115753173828125
521.972795682145	-0.114227294921875
522.972795679621	-0.1126708984375
523.972795677096	-0.111114501953125
524.972795674571	-0.109588623046875
525.972795672046	-0.1080322265625
526.972795669522	-0.1064453125
527.972795666997	-0.104888916015625
528.972795664472	-0.103302001953125
529.972795661947	-0.101715087890625
530.972795659423	-0.100128173828125
531.972795656898	-0.098541259765625
532.972795654373	-0.096954345703125
533.972795651848	-0.095306396484375
534.972795649324	-0.09375
535.972795646799	-0.092132568359375
536.972795644274	-0.090484619140625
537.972795641749	-0.088836669921875
538.972795639225	-0.087158203125
539.9727956367	-0.08551025390625
540.972795634175	-0.083831787109375
541.97279563165	-0.0821533203125
542.972795629125	-0.0804443359375
543.972795626601	-0.0787353515625
544.972795624076	-0.0770263671875
545.972795621551	-0.0753173828125
546.972795619026	-0.0736083984375
547.972795616502	-0.071868896484375
548.972795613977	-0.070159912109375
549.972795611452	-0.06842041015625
550.972795608927	-0.066680908203125
551.972795606403	-0.06494140625
552.972795603878	-0.06317138671875
553.972795601353	-0.0614013671875
554.972795598828	-0.05963134765625
555.972795596304	-0.057830810546875
556.972795593779	-0.056060791015625
557.972795591254	-0.05426025390625
558.972795588729	-0.052459716796875
559.972795586205	-0.0506591796875
560.97279558368	-0.048828125
561.972795581155	-0.0469879150390625
562.97279557863	-0.045135498046875
563.972795576106	-0.0432586669921875
564.972795573581	-0.041363525390625
565.972795571056	-0.039495849609375
566.972795568531	-0.03758544921875
567.972795566007	-0.0356414794921875
568.972795563482	-0.0336700439453125
569.972795560957	-0.03167724609375
570.972795558432	-0.02965087890625
571.972795555908	-0.027606201171875
572.972795553383	-0.0255706787109375
573.972795550858	-0.0234649658203125
574.972795548333	-0.0213623046875
575.972795545808	-0.01922607421875
576.972795543284	-0.01705322265625
577.972795540759	-0.0148773193359375
578.972795538234	-0.0126220703125
579.972795535709	-0.010345458984375
580.972795533185	-0.0080291748046875
581.97279553066	-0.00566711425781249
582.972795528135	-0.0032318115234375
583.97279552561	-0.000787353515625006
584.972795523086	0.0017120361328125
585.972795520561	0.00425109863281251
586.972795518036	0.0068328857421875
587.972795515511	0.00947265625
588.972795512987	0.0121612548828125
589.972795510462	0.014923095703125
590.972795507937	0.0177337646484375
591.972795505412	0.02059326171875
592.972795502888	0.0235137939453125
593.972795500363	0.0265106201171875
594.972795497838	0.029559326171875
595.972795495313	0.0326751708984375
596.972795492789	0.035833740234375
597.972795490264	0.03907470703125
598.972795487739	0.042364501953125
599.972795485214	0.04573974609375
600.97279548269	0.0491790771484375
601.972795480165	0.052703857421875
