Time (s)	WE(1).Potential (V)
3.23376499183553	0.52337646484375
4.23376498931077	0.52337646484375
5.23376498678601	0.523681640625
6.23376498426126	0.523681640625
7.2337649817365	0.52398681640625
8.23376497921174	0.52398681640625
9.23376497668698	0.5242919921875
10.2337649741622	0.5242919921875
11.2337649716375	0.52459716796875
12.2337649691127	0.52490234375
13.233764966588	0.52490234375
14.2337649640632	0.52520751953125
15.2337649615384	0.52520751953125
16.2337649590137	0.5255126953125
17.2337649564889	0.5255126953125
18.2337649539642	0.52581787109375
19.2337649514394	0.52581787109375
20.2337649489147	0.526123046875
21.2337649463899	0.526123046875
22.2337649438651	0.52642822265625
23.2337649413404	0.52642822265625
24.2337649388156	0.5267333984375
25.2337649362909	0.5267333984375
26.2337649337661	0.5267333984375
27.2337649312414	0.52703857421875
28.2337649287166	0.52734375
29.2337649261918	0.52734375
30.2337649236671	0.52734375
31.2337649211423	0.52764892578125
32.2337649186176	0.52764892578125
33.2337649160928	0.5279541015625
34.2337649135681	0.5279541015625
35.2337649110433	0.52825927734375
36.2337649085185	0.52825927734375
37.2337649059938	0.528564453125
38.233764903469	0.528564453125
39.2337649009443	0.52886962890625
40.2337648984195	0.52886962890625
41.2337648958948	0.5291748046875
42.23376489337	0.5291748046875
43.2337648908452	0.52947998046875
44.2337648883205	0.52947998046875
45.2337648857957	0.52947998046875
46.233764883271	0.52978515625
47.2337648807462	0.52978515625
48.2337648782215	0.53009033203125
49.2337648756967	0.53009033203125
50.2337648731719	0.5303955078125
51.2337648706472	0.5303955078125
52.2337648681224	0.53070068359375
53.2337648655977	0.53070068359375
54.2337648630729	0.53070068359375
55.2337648605481	0.531005859375
56.2337648580234	0.531005859375
57.2337648554986	0.53131103515625
58.2337648529739	0.53131103515625
59.2337648504491	0.53131103515625
60.2337648479244	0.5316162109375
61.2337648453996	0.5316162109375
62.2337648428748	0.53192138671875
63.2337648403501	0.53192138671875
64.2337648378253	0.5322265625
65.2337648353006	0.5322265625
66.2337648327758	0.5322265625
67.2337648302511	0.53253173828125
68.2337648277263	0.53253173828125
69.2337648252015	0.53253173828125
70.2337648226768	0.5328369140625
71.233764820152	0.5328369140625
72.2337648176273	0.53314208984375
73.2337648151025	0.53314208984375
74.2337648125778	0.533447265625
75.233764810053	0.533447265625
76.2337648075282	0.533447265625
77.2337648050035	0.53375244140625
78.2337648024787	0.53375244140625
79.233764799954	0.53375244140625
80.2337647974292	0.5340576171875
81.2337647949045	0.5340576171875
82.2337647923797	0.53436279296875
83.2337647898549	0.53436279296875
84.2337647873302	0.53436279296875
85.2337647848054	0.53466796875
86.2337647822807	0.53466796875
87.2337647797559	0.53497314453125
88.2337647772312	0.53497314453125
89.2337647747064	0.53497314453125
90.2337647721816	0.5352783203125
91.2337647696569	0.5352783203125
92.2337647671321	0.5352783203125
93.2337647646074	0.53558349609375
94.2337647620826	0.53558349609375
95.2337647595579	0.53558349609375
96.2337647570331	0.535888671875
97.2337647545083	0.535888671875
98.2337647519836	0.53619384765625
99.2337647494588	0.53619384765625
100.233764746934	0.53619384765625
101.233764744409	0.5364990234375
102.233764741885	0.5364990234375
103.23376473936	0.5364990234375
104.233764736835	0.53680419921875
105.23376473431	0.53680419921875
106.233764731786	0.53680419921875
107.233764729261	0.537109375
108.233764726736	0.537109375
109.233764724211	0.53741455078125
110.233764721686	0.53741455078125
111.233764719162	0.53741455078125
112.233764716637	0.5377197265625
113.233764714112	0.5377197265625
114.233764711587	0.5377197265625
115.233764709063	0.53802490234375
116.233764706538	0.53802490234375
117.233764704013	0.53802490234375
118.233764701488	0.538330078125
119.233764698964	0.538330078125
120.233764696439	0.53863525390625
121.233764693914	0.53863525390625
122.233764691389	0.53863525390625
123.233764688865	0.53863525390625
124.23376468634	0.5389404296875
125.233764683815	0.5389404296875
126.23376468129	0.5389404296875
127.233764678766	0.53924560546875
128.233764676241	0.53924560546875
129.233764673716	0.53924560546875
130.233764671191	0.53955078125
131.233764668667	0.53955078125
132.233764666142	0.53955078125
133.233764663617	0.53985595703125
134.233764661092	0.53985595703125
135.233764658568	0.53985595703125
136.233764656043	0.5401611328125
137.233764653518	0.5401611328125
138.233764650993	0.5401611328125
139.233764648469	0.5401611328125
140.233764645944	0.54046630859375
141.233764643419	0.54046630859375
142.233764640894	0.54046630859375
143.23376463837	0.540771484375
144.233764635845	0.540771484375
145.23376463332	0.540771484375
146.233764630795	0.54107666015625
147.23376462827	0.54107666015625
148.233764625746	0.54107666015625
149.233764623221	0.54107666015625
150.233764620696	0.5413818359375
151.233764618171	0.5413818359375
152.233764615647	0.5413818359375
153.233764613122	0.5413818359375
154.233764610597	0.54168701171875
155.233764608072	0.54168701171875
156.233764605548	0.54168701171875
157.233764603023	0.54168701171875
158.233764600498	0.54168701171875
159.233764597973	0.5419921875
160.233764595449	0.5419921875
161.233764592924	0.5419921875
162.233764590399	0.5419921875
163.233764587874	0.5419921875
164.23376458535	0.54229736328125
165.233764582825	0.54229736328125
166.2337645803	0.54229736328125
167.233764577775	0.54229736328125
168.233764575251	0.54229736328125
169.233764572726	0.54229736328125
170.233764570201	0.54229736328125
171.233764567676	0.54229736328125
172.233764565152	0.5426025390625
173.233764562627	0.5426025390625
174.233764560102	0.5426025390625
175.233764557577	0.5426025390625
176.233764555053	0.5426025390625
177.233764552528	0.5426025390625
178.233764550003	0.5426025390625
179.233764547478	0.5426025390625
180.233764544953	0.5426025390625
181.233764542429	0.54290771484375
182.233764539904	0.54290771484375
