Time (s)	WE(1).Potential (V)
5482.23458615869	0.537109375
5483.23458615616	0.53131103515625
5484.23458615364	0.52581787109375
5485.23458615111	0.52093505859375
5486.23458614859	0.516357421875
5487.23458614606	0.5120849609375
5488.23458614354	0.5084228515625
5489.23458614101	0.50506591796875
5490.23458613849	0.501708984375
5491.23458613597	0.49871826171875
5492.23458613344	0.49615478515625
5493.23458613092	0.493804931640625
5494.23458612839	0.49163818359375
5495.23458612587	0.489654541015625
5496.23458612334	0.48785400390625
5497.23458612082	0.4862060546875
5498.23458611829	0.48468017578125
5499.23458611577	0.483306884765625
5500.23458611324	0.4820556640625
5501.23458611072	0.48095703125
5502.23458610819	0.47991943359375
5503.23458610567	0.47900390625
5504.23458610314	0.478179931640625
5505.23458610062	0.47747802734375
5506.23458609809	0.476806640625
5507.23458609557	0.476226806640625
5508.23458609304	0.47564697265625
5509.23458609052	0.47515869140625
5510.234586088	0.4747314453125
5511.23458608547	0.474365234375
5512.23458608295	0.47406005859375
5513.23458608042	0.473785400390625
5514.2345860779	0.47357177734375
5515.23458607537	0.473388671875
5516.23458607285	0.473175048828125
5517.23458607032	0.47296142578125
5518.2345860678	0.472808837890625
5519.23458606527	0.472686767578125
5520.23458606275	0.47259521484375
5521.23458606022	0.472503662109375
5522.2345860577	0.47247314453125
5523.23458605517	0.472412109375
5524.23458605265	0.472412109375
5525.23458605012	0.472412109375
5526.2345860476	0.472412109375
5527.23458604507	0.472442626953125
5528.23458604255	0.4725341796875
5529.23458604002	0.47259521484375
5530.2345860375	0.47259521484375
5531.23458603498	0.47265625
5532.23458603245	0.472686767578125
5533.23458602993	0.472747802734375
5534.2345860274	0.4727783203125
5535.23458602488	0.472808837890625
5536.23458602235	0.472808837890625
5537.23458601983	0.472808837890625
5538.2345860173	0.472869873046875
5539.23458601478	0.47296142578125
5540.23458601225	0.472991943359375
5541.23458600973	0.473052978515625
5542.2345860072	0.47314453125
5543.23458600468	0.473175048828125
5544.23458600215	0.473236083984375
5545.23458599963	0.473297119140625
5546.2345859971	0.473388671875
5547.23458599458	0.47344970703125
5548.23458599205	0.473541259765625
5549.23458598953	0.47357177734375
5550.234585987	0.4736328125
5551.23458598448	0.4736328125
5552.23458598196	0.473663330078125
5553.23458597943	0.47369384765625
5554.23458597691	0.473724365234375
5555.23458597438	0.4737548828125
5556.23458597186	0.473785400390625
5557.23458596933	0.473785400390625
5558.23458596681	0.473846435546875
5559.23458596428	0.473876953125
5560.23458596176	0.473907470703125
5561.23458595923	0.47393798828125
5562.23458595671	0.4739990234375
5563.23458595418	0.47406005859375
5564.23458595166	0.47412109375
5565.23458594913	0.474151611328125
5566.23458594661	0.474212646484375
5567.23458594408	0.474212646484375
5568.23458594156	0.4742431640625
5569.23458593903	0.474273681640625
5570.23458593651	0.47430419921875
5571.23458593398	0.474365234375
5572.23458593146	0.474365234375
5573.23458592894	0.474395751953125
5574.23458592641	0.474456787109375
5575.23458592389	0.4744873046875
5576.23458592136	0.474517822265625
5577.23458591884	0.474517822265625
5578.23458591631	0.474517822265625
5579.23458591379	0.47454833984375
5580.23458591126	0.47454833984375
5581.23458590874	0.474578857421875
5582.23458590621	0.474639892578125
5583.23458590369	0.474639892578125
5584.23458590116	0.47467041015625
5585.23458589864	0.474700927734375
5586.23458589611	0.4747314453125
5587.23458589359	0.474761962890625
5588.23458589106	0.47479248046875
5589.23458588854	0.47479248046875
5590.23458588601	0.474822998046875
5591.23458588349	0.474853515625
5592.23458588096	0.474853515625
5593.23458587844	0.474884033203125
5594.23458587592	0.47491455078125
5595.23458587339	0.47491455078125
5596.23458587087	0.4749755859375
5597.23458586834	0.475006103515625
5598.23458586582	0.4749755859375
5599.23458586329	0.475006103515625
5600.23458586077	0.475067138671875
5601.23458585824	0.475067138671875
5602.23458585572	0.47509765625
5603.23458585319	0.475128173828125
5604.23458585067	0.47515869140625
5605.23458584814	0.475189208984375
5606.23458584562	0.4752197265625
5607.23458584309	0.4752197265625
5608.23458584057	0.4752197265625
5609.23458583804	0.4752197265625
5610.23458583552	0.475250244140625
5611.23458583299	0.475250244140625
5612.23458583047	0.47528076171875
5613.23458582795	0.47528076171875
5614.23458582542	0.475311279296875
5615.2345858229	0.475311279296875
5616.23458582037	0.475372314453125
5617.23458581785	0.47540283203125
5618.23458581532	0.47540283203125
5619.2345858128	0.47540283203125
5620.23458581027	0.475433349609375
5621.23458580775	0.4754638671875
5622.23458580522	0.4754638671875
5623.2345858027	0.4754638671875
5624.23458580017	0.475494384765625
5625.23458579765	0.47552490234375
5626.23458579512	0.47552490234375
5627.2345857926	0.475555419921875
5628.23458579007	0.4755859375
5629.23458578755	0.4755859375
5630.23458578502	0.47564697265625
5631.2345857825	0.47564697265625
5632.23458577997	0.475677490234375
5633.23458577745	0.4757080078125
5634.23458577493	0.475738525390625
5635.2345857724	0.47576904296875
5636.23458576988	0.47576904296875
5637.23458576735	0.47576904296875
5638.23458576483	0.47576904296875
5639.2345857623	0.47576904296875
5640.23458575978	0.475799560546875
5641.23458575725	0.475830078125
5642.23458575473	0.475830078125
5643.2345857522	0.475830078125
5644.23458574968	0.475830078125
5645.23458574715	0.475799560546875
5646.23458574463	0.475830078125
5647.2345857421	0.475830078125
5648.23458573958	0.475830078125
5649.23458573705	0.475830078125
5650.23458573453	0.475860595703125
5651.234585732	0.475860595703125
5652.23458572948	0.47589111328125
5653.23458572695	0.47589111328125
5654.23458572443	0.475860595703125
5655.23458572191	0.475860595703125
5656.23458571938	0.475860595703125
5657.23458571686	0.475860595703125
5658.23458571433	0.475921630859375
5659.23458571181	0.4759521484375
5660.23458570928	0.475982666015625
5661.23458570676	0.47601318359375
