Time (s)	WE(1).Potential (V)	WE(1).Current (A)
13.6986729654142	1.2701416015625	7.9986572265625E-05
13.7986729651617	1.436767578125	8.026123046875E-05
13.8986729649092	1.5045166015625	7.9986572265625E-05
13.9986729646567	1.51763916015625	7.9559326171875E-05
14.0986729644043	1.52191162109375	8.0352783203125E-05
14.1986729641518	1.5240478515625	8.0078125E-05
14.2986729638993	1.5252685546875	8.0291748046875E-05
14.3986729636468	1.52587890625	7.952880859375E-05
14.4986729633944	1.5264892578125	8.001708984375E-05
14.5986729631419	1.52679443359375	8.0322265625E-05
14.6986729628894	1.527099609375	7.9559326171875E-05
14.7986729626369	1.52740478515625	7.9833984375E-05
14.8986729623845	1.5277099609375	8.0078125E-05
14.998672962132	1.52801513671875	8.02001953125E-05
15.0986729618795	1.52801513671875	7.94677734375E-05
15.198672961627	1.5283203125	8.001708984375E-05
15.2986729613746	1.5283203125	7.9864501953125E-05
15.3986729611221	1.52862548828125	7.940673828125E-05
15.4986729608696	1.52862548828125	7.94677734375E-05
15.5986729606171	1.5289306640625	8.0352783203125E-05
15.6986729603647	1.5289306640625	8.0322265625E-05
15.7986729601122	1.5289306640625	7.952880859375E-05
15.8986729598597	1.52923583984375	8.050537109375E-05
15.9986729596072	1.52923583984375	8.038330078125E-05
16.0986729593548	1.52923583984375	8.0413818359375E-05
16.1986729591023	1.52923583984375	7.9498291015625E-05
16.2986729588498	1.529541015625	8.026123046875E-05
16.3986729585973	1.529541015625	8.0413818359375E-05
16.4986729583449	1.529541015625	7.9498291015625E-05
16.5986729580924	1.52984619140625	7.9559326171875E-05
16.6986729578399	1.52984619140625	7.9681396484375E-05
16.7986729575874	1.52984619140625	8.0352783203125E-05
16.898672957335	1.52984619140625	7.952880859375E-05
16.9986729570825	1.52984619140625	7.965087890625E-05
17.09867295683	1.5301513671875	8.0291748046875E-05
17.1986729565775	1.5301513671875	8.026123046875E-05
17.298672956325	1.5301513671875	7.965087890625E-05
17.3986729560726	1.5301513671875	7.9925537109375E-05
17.4986729558201	1.5301513671875	8.0474853515625E-05
17.5986729555676	1.5301513671875	7.9620361328125E-05
17.6986729553151	1.53045654296875	8.001708984375E-05
17.7986729550627	1.53045654296875	8.038330078125E-05
17.8986729548102	1.53045654296875	8.038330078125E-05
17.9986729545577	1.53045654296875	7.9498291015625E-05
18.0986729543052	1.53045654296875	7.99560546875E-05
18.1986729540528	1.53076171875	8.0474853515625E-05
18.2986729538003	1.53076171875	7.9498291015625E-05
18.3986729535478	1.53076171875	7.94677734375E-05
18.4986729532953	1.53076171875	7.97119140625E-05
18.5986729530429	1.53076171875	8.0322265625E-05
18.6986729527904	1.53076171875	7.9559326171875E-05
18.7986729525379	1.53076171875	7.9681396484375E-05
18.8986729522854	1.53106689453125	8.04443359375E-05
18.998672952033	1.53106689453125	8.0352783203125E-05
19.0986729517805	1.53106689453125	7.952880859375E-05
19.198672951528	1.53106689453125	7.9803466796875E-05
19.2986729512755	1.53106689453125	8.04443359375E-05
19.3986729510231	1.53106689453125	7.97119140625E-05
19.4986729507706	1.53106689453125	8.0352783203125E-05
19.5986729505181	1.5313720703125	7.9498291015625E-05
19.6986729502656	1.5313720703125	8.04443359375E-05
19.7986729500132	1.5313720703125	7.977294921875E-05
19.8986729497607	1.5313720703125	7.958984375E-05
19.9986729495082	1.5313720703125	7.9986572265625E-05
20.0986729492557	1.5313720703125	8.038330078125E-05
20.1986729490033	1.5313720703125	7.9742431640625E-05
20.2986729487508	1.5313720703125	7.94677734375E-05
20.3986729484983	1.5313720703125	8.0169677734375E-05
20.4986729482458	1.53167724609375	8.0322265625E-05
20.5986729479934	1.53167724609375	7.9498291015625E-05
20.6986729477409	1.53167724609375	7.9620361328125E-05
20.7986729474884	1.53167724609375	8.0413818359375E-05
20.8986729472359	1.53167724609375	8.0352783203125E-05
20.9986729469834	1.53167724609375	7.9498291015625E-05
21.098672946731	1.53167724609375	7.97119140625E-05
21.1986729464785	1.53167724609375	8.0413818359375E-05
21.298672946226	1.53167724609375	8.0078125E-05
21.3986729459735	1.53167724609375	7.94677734375E-05
21.4986729457211	1.531982421875	7.9559326171875E-05
21.5986729454686	1.531982421875	8.050537109375E-05
21.6986729452161	1.531982421875	8.0322265625E-05
21.7986729449636	1.531982421875	7.9559326171875E-05
21.8986729447112	1.531982421875	8.0078125E-05
21.9986729444587	1.531982421875	8.0413818359375E-05
22.0986729442062	1.531982421875	8.0291748046875E-05
22.1986729439537	1.531982421875	7.94677734375E-05
22.2986729437013	1.531982421875	8.0078125E-05
22.3986729434488	1.531982421875	8.0413818359375E-05
22.4986729431963	1.53228759765625	7.958984375E-05
22.5986729429438	1.53228759765625	7.97119140625E-05
22.6986729426914	1.53228759765625	8.0047607421875E-05
22.7986729424389	1.53228759765625	8.0291748046875E-05
22.8986729421864	1.53228759765625	7.952880859375E-05
22.9986729419339	1.53228759765625	7.9681396484375E-05
23.0986729416815	1.53228759765625	8.04443359375E-05
23.198672941429	1.53228759765625	7.9681396484375E-05
23.2986729411765	1.53228759765625	7.9559326171875E-05
23.398672940924	1.53228759765625	8.02001953125E-05
23.4986729406716	1.53228759765625	8.038330078125E-05
23.5986729404191	1.53228759765625	7.9681396484375E-05
23.6986729401666	1.53228759765625	7.9742431640625E-05
23.7986729399141	1.5325927734375	8.038330078125E-05
23.8986729396617	1.5325927734375	8.0322265625E-05
23.9986729394092	1.5325927734375	7.9498291015625E-05
24.0986729391567	1.5325927734375	8.026123046875E-05
24.1986729389042	1.5325927734375	8.04443359375E-05
24.2986729386517	1.5325927734375	7.958984375E-05
24.3986729383993	1.5325927734375	7.940673828125E-05
24.4986729381468	1.5325927734375	7.9742431640625E-05
24.5986729378943	1.5325927734375	8.0291748046875E-05
24.6986729376418	1.5325927734375	7.952880859375E-05
24.7986729373894	1.5325927734375	7.97119140625E-05
24.8986729371369	1.5325927734375	8.04443359375E-05
24.9986729368844	1.5325927734375	8.050537109375E-05
25.0986729366319	1.5325927734375	8.0169677734375E-05
25.1986729363795	1.53289794921875	8.013916015625E-05
25.298672936127	1.53289794921875	8.0352783203125E-05
25.3986729358745	1.53289794921875	7.9559326171875E-05
25.498672935622	1.53289794921875	7.989501953125E-05
25.5986729353696	1.53289794921875	7.94677734375E-05
25.6986729351171	1.53289794921875	8.0291748046875E-05
25.7986729348646	1.53289794921875	7.9559326171875E-05
25.8986729346121	1.53289794921875	8.0108642578125E-05
25.9986729343597	1.53289794921875	8.0413818359375E-05
26.0986729341072	1.53289794921875	7.952880859375E-05
26.1986729338547	1.53289794921875	8.0352783203125E-05
26.2986729336022	1.53289794921875	7.958984375E-05
26.3986729333498	1.53289794921875	8.0322265625E-05
26.4986729330973	1.53289794921875	7.97119140625E-05
26.5986729328448	1.533203125	7.9681396484375E-05
26.6986729325923	1.53289794921875	8.0352783203125E-05
26.7986729323399	1.53289794921875	7.977294921875E-05
26.8986729320874	1.533203125	8.038330078125E-05
26.9986729318349	1.533203125	8.013916015625E-05
27.0986729315824	1.533203125	8.0291748046875E-05
27.19867293133	1.533203125	7.9742431640625E-05
27.2986729310775	1.533203125	7.97119140625E-05
27.398672930825	1.533203125	7.965087890625E-05
27.4986729305725	1.533203125	7.9681396484375E-05
27.59867293032	1.533203125	7.965087890625E-05
27.6986729300676	1.533203125	8.0230712890625E-05
27.7986729298151	1.533203125	8.026123046875E-05
27.8986729295626	1.533203125	7.958984375E-05
27.9986729293101	1.533203125	8.0322265625E-05
28.0986729290577	1.533203125	7.9864501953125E-05
28.1986729288052	1.533203125	8.0169677734375E-05
28.2986729285527	1.533203125	7.958984375E-05
28.3986729283002	1.533203125	7.977294921875E-05
28.4986729280478	1.533203125	8.0352783203125E-05
28.5986729277953	1.53350830078125	7.965087890625E-05
28.6986729275428	1.53350830078125	8.0108642578125E-05
28.7986729272903	1.53350830078125	8.0291748046875E-05
28.8986729270379	1.53350830078125	8.0352783203125E-05
28.9986729267854	1.53350830078125	7.965087890625E-05
29.0986729265329	1.53350830078125	7.9681396484375E-05
29.1986729262804	1.53350830078125	8.0047607421875E-05
29.298672926028	1.53350830078125	7.965087890625E-05
29.3986729257755	1.53350830078125	7.958984375E-05
29.498672925523	1.53350830078125	8.001708984375E-05
29.5986729252705	1.53350830078125	8.0322265625E-05
29.6986729250181	1.53350830078125	7.9803466796875E-05
29.7986729247656	1.53350830078125	8.026123046875E-05
29.8986729245131	1.53350830078125	8.038330078125E-05
29.9986729242606	1.53350830078125	8.001708984375E-05
30.0986729240082	1.53350830078125	7.9681396484375E-05
30.1986729237557	1.53350830078125	7.958984375E-05
30.2986729235032	1.53350830078125	8.0230712890625E-05
30.3986729232507	1.5338134765625	7.9559326171875E-05
30.4986729229983	1.53350830078125	7.952880859375E-05
30.5986729227458	1.53350830078125	7.9620361328125E-05
30.6986729224933	1.5338134765625	8.0352783203125E-05
30.7986729222408	1.5338134765625	8.0291748046875E-05
30.8986729219884	1.5338134765625	7.958984375E-05
30.9986729217359	1.5338134765625	8.0291748046875E-05
31.0986729214834	1.5338134765625	8.0413818359375E-05
31.1986729212309	1.5338134765625	8.0078125E-05
31.2986729209784	1.5338134765625	7.952880859375E-05
31.398672920726	1.5338134765625	7.989501953125E-05
31.4986729204735	1.5338134765625	8.038330078125E-05
31.598672920221	1.5338134765625	7.9620361328125E-05
31.6986729199685	1.5338134765625	7.9620361328125E-05
31.7986729197161	1.5338134765625	8.0352783203125E-05
31.8986729194636	1.5338134765625	8.0230712890625E-05
31.9986729192111	1.5338134765625	7.9559326171875E-05
32.0986729189586	1.5338134765625	8.001708984375E-05
32.1986729187062	1.5338134765625	7.97119140625E-05
32.2986729184537	1.5338134765625	7.9620361328125E-05
32.3986729182012	1.5338134765625	7.9742431640625E-05
32.4986729179487	1.5338134765625	8.0413818359375E-05
32.5986729176963	1.5338134765625	8.001708984375E-05
32.6986729174438	1.5338134765625	7.958984375E-05
32.7986729171913	1.5338134765625	8.026123046875E-05
32.8986729169388	1.5338134765625	8.0291748046875E-05
32.9986729166864	1.5338134765625	7.952880859375E-05
33.0986729164339	1.53411865234375	7.99560546875E-05
33.1986729161814	1.53411865234375	8.0322265625E-05
33.2986729159289	1.53411865234375	7.9681396484375E-05
33.3986729156765	1.53411865234375	8.038330078125E-05
33.498672915424	1.53411865234375	8.0078125E-05
33.5986729151715	1.53411865234375	8.0230712890625E-05
33.698672914919	1.53411865234375	7.9559326171875E-05
33.7986729146666	1.53411865234375	7.9833984375E-05
33.8986729144141	1.53411865234375	8.0352783203125E-05
33.9986729141616	1.53411865234375	7.958984375E-05
34.0986729139091	1.53411865234375	7.94677734375E-05
34.1986729136567	1.53411865234375	8.0322265625E-05
34.2986729134042	1.53411865234375	8.0230712890625E-05
34.3986729131517	1.53411865234375	7.958984375E-05
34.4986729128992	1.53411865234375	7.9742431640625E-05
34.5986729126467	1.53411865234375	8.02001953125E-05
34.6986729123943	1.53411865234375	8.04443359375E-05
34.7986729121418	1.53411865234375	7.9559326171875E-05
34.8986729118893	1.53411865234375	8.026123046875E-05
34.9986729116368	1.53411865234375	8.0322265625E-05
35.0986729113844	1.53411865234375	7.952880859375E-05
35.1986729111319	1.53411865234375	8.0291748046875E-05
35.2986729108794	1.53411865234375	7.958984375E-05
35.3986729106269	1.53411865234375	8.001708984375E-05
35.4986729103745	1.53411865234375	7.9498291015625E-05
35.598672910122	1.53411865234375	8.0047607421875E-05
35.6986729098695	1.53411865234375	8.038330078125E-05
35.798672909617	1.534423828125	7.952880859375E-05
35.8986729093646	1.534423828125	7.9864501953125E-05
35.9986729091121	1.534423828125	8.038330078125E-05
36.0986729088596	1.534423828125	8.013916015625E-05
36.1986729086071	1.534423828125	7.9559326171875E-05
36.2986729083547	1.534423828125	7.99560546875E-05
36.3986729081022	1.534423828125	7.9986572265625E-05
36.4986729078497	1.534423828125	8.0474853515625E-05
36.5986729075972	1.534423828125	7.965087890625E-05
36.6986729073448	1.534423828125	8.038330078125E-05
36.7986729070923	1.534423828125	8.026123046875E-05
36.8986729068398	1.534423828125	7.9498291015625E-05
36.9986729065873	1.534423828125	8.02001953125E-05
37.0986729063349	1.534423828125	7.952880859375E-05
37.1986729060824	1.534423828125	7.99560546875E-05
37.2986729058299	1.534423828125	7.952880859375E-05
37.3986729055774	1.534423828125	8.0047607421875E-05
37.498672905325	1.534423828125	8.0352783203125E-05
37.5986729050725	1.534423828125	7.952880859375E-05
37.69867290482	1.534423828125	8.0413818359375E-05
37.7986729045675	1.534423828125	8.0322265625E-05
37.898672904315	1.534423828125	7.9803466796875E-05
37.9986729040626	1.534423828125	7.9620361328125E-05
38.0986729038101	1.534423828125	8.0291748046875E-05
38.1986729035576	1.534423828125	8.0108642578125E-05
38.2986729033051	1.534423828125	7.965087890625E-05
38.3986729030527	1.534423828125	7.9742431640625E-05
38.4986729028002	1.534423828125	8.0291748046875E-05
38.5986729025477	1.534423828125	7.977294921875E-05
38.6986729022952	1.53472900390625	7.958984375E-05
38.7986729020428	1.53472900390625	8.0352783203125E-05
38.8986729017903	1.53472900390625	7.9437255859375E-05
38.9986729015378	1.53472900390625	7.9620361328125E-05
39.0986729012853	1.53472900390625	8.038330078125E-05
39.1986729010329	1.53472900390625	8.0230712890625E-05
39.2986729007804	1.53472900390625	7.952880859375E-05
39.3986729005279	1.53472900390625	8.038330078125E-05
39.4986729002754	1.53472900390625	8.026123046875E-05
39.598672900023	1.53472900390625	7.965087890625E-05
39.6986728997705	1.53472900390625	7.9986572265625E-05
39.798672899518	1.53472900390625	8.0352783203125E-05
39.8986728992655	1.53472900390625	7.9559326171875E-05
39.9986728990131	1.53472900390625	7.9833984375E-05
40.0986728987606	1.53472900390625	8.050537109375E-05
40.1986728985081	1.53472900390625	8.0291748046875E-05
40.2986728982556	1.53472900390625	7.952880859375E-05
40.3986728980032	1.53472900390625	8.0108642578125E-05
40.4986728977507	1.53472900390625	8.0291748046875E-05
40.5986728974982	1.53472900390625	7.9498291015625E-05
40.6986728972457	1.53472900390625	7.97119140625E-05
40.7986728969933	1.53472900390625	8.0352783203125E-05
40.8986728967408	1.53472900390625	7.977294921875E-05
40.9986728964883	1.53472900390625	7.958984375E-05
41.0986728962358	1.53472900390625	7.9925537109375E-05
41.1986728959834	1.53472900390625	8.0291748046875E-05
41.2986728957309	1.53472900390625	7.9742431640625E-05
41.3986728954784	1.53472900390625	7.9498291015625E-05
41.4986728952259	1.53472900390625	8.0230712890625E-05
41.5986728949734	1.53472900390625	8.0352783203125E-05
41.698672894721	1.53472900390625	7.9833984375E-05
41.7986728944685	1.53472900390625	7.965087890625E-05
41.898672894216	1.53472900390625	8.013916015625E-05
41.9986728939635	1.53472900390625	8.0413818359375E-05
42.0986728937111	1.5350341796875	7.9559326171875E-05
42.1986728934586	1.5350341796875	7.9681396484375E-05
42.2986728932061	1.5350341796875	8.038330078125E-05
42.3986728929536	1.5350341796875	7.97119140625E-05
42.4986728927012	1.5350341796875	7.965087890625E-05
42.5986728924487	1.5350341796875	7.989501953125E-05
42.6986728921962	1.5350341796875	8.0322265625E-05
42.7986728919437	1.5350341796875	7.965087890625E-05
42.8986728916913	1.5350341796875	7.9803466796875E-05
42.9986728914388	1.5350341796875	8.0291748046875E-05
43.0986728911863	1.5350341796875	7.958984375E-05
43.1986728909338	1.5350341796875	7.9498291015625E-05
43.2986728906814	1.5350341796875	8.0322265625E-05
43.3986728904289	1.5350341796875	8.026123046875E-05
43.4986728901764	1.5350341796875	7.94677734375E-05
43.5986728899239	1.5350341796875	8.0322265625E-05
43.6986728896715	1.5350341796875	8.0474853515625E-05
43.798672889419	1.5350341796875	8.0230712890625E-05
43.8986728891665	1.5350341796875	7.97119140625E-05
43.998672888914	1.5350341796875	8.0352783203125E-05
44.0986728886616	1.5350341796875	8.0169677734375E-05
44.1986728884091	1.5350341796875	7.958984375E-05
44.2986728881566	1.5350341796875	7.9742431640625E-05
44.3986728879041	1.5350341796875	8.0322265625E-05
44.4986728876517	1.5350341796875	7.958984375E-05
44.5986728873992	1.5350341796875	7.9620361328125E-05
44.6986728871467	1.53533935546875	8.038330078125E-05
44.7986728868942	1.53533935546875	7.9620361328125E-05
44.8986728866417	1.53533935546875	7.958984375E-05
44.9986728863893	1.53533935546875	7.952880859375E-05
45.0986728861368	1.53533935546875	8.02001953125E-05
45.1986728858843	1.53533935546875	7.9559326171875E-05
45.2986728856318	1.53533935546875	7.9986572265625E-05
45.3986728853794	1.53533935546875	8.026123046875E-05
45.4986728851269	1.53533935546875	8.0413818359375E-05
45.5986728848744	1.53533935546875	7.958984375E-05
45.6986728846219	1.53533935546875	8.0413818359375E-05
45.7986728843695	1.53533935546875	7.9833984375E-05
45.898672884117	1.53533935546875	7.965087890625E-05
45.9986728838645	1.53533935546875	8.0413818359375E-05
46.098672883612	1.53533935546875	8.001708984375E-05
46.1986728833596	1.53533935546875	8.0413818359375E-05
46.2986728831071	1.53533935546875	7.9864501953125E-05
46.3986728828546	1.53533935546875	8.0352783203125E-05
46.4986728826021	1.53533935546875	7.9620361328125E-05
46.5986728823497	1.53533935546875	7.9742431640625E-05
46.6986728820972	1.53533935546875	7.952880859375E-05
46.7986728818447	1.53533935546875	7.9986572265625E-05
46.8986728815922	1.53533935546875	7.9681396484375E-05
46.9986728813398	1.53533935546875	8.02001953125E-05
47.0986728810873	1.53533935546875	8.0322265625E-05
47.1986728808348	1.53533935546875	7.958984375E-05
47.2986728805823	1.53533935546875	8.001708984375E-05
47.3986728803299	1.53533935546875	7.94677734375E-05
47.4986728800774	1.53533935546875	7.9803466796875E-05
47.5986728798249	1.53533935546875	7.9559326171875E-05
47.6986728795724	1.53533935546875	8.0291748046875E-05
47.79867287932	1.53564453125	8.0108642578125E-05
47.8986728790675	1.53564453125	8.04443359375E-05
47.998672878815	1.53564453125	8.02001953125E-05
48.0986728785625	1.53564453125	8.038330078125E-05
48.19867287831	1.53564453125	7.9803466796875E-05
48.2986728780576	1.53564453125	7.958984375E-05
48.3986728778051	1.53564453125	8.038330078125E-05
48.4986728775526	1.53564453125	7.97119140625E-05
48.5986728773001	1.53564453125	8.04443359375E-05
48.6986728770477	1.53564453125	7.9742431640625E-05
48.7986728767952	1.53564453125	8.0322265625E-05
48.8986728765427	1.53564453125	7.9833984375E-05
48.9986728762902	1.53564453125	7.9681396484375E-05
49.0986728760378	1.53564453125	7.952880859375E-05
49.1986728757853	1.53564453125	7.977294921875E-05
49.2986728755328	1.53564453125	7.9559326171875E-05
49.3986728752803	1.53564453125	8.0108642578125E-05
49.4986728750279	1.53564453125	8.026123046875E-05
49.5986728747754	1.53564453125	7.952880859375E-05
49.6986728745229	1.53564453125	8.0169677734375E-05
49.7986728742704	1.53564453125	7.940673828125E-05
49.898672874018	1.53564453125	7.97119140625E-05
49.9986728737655	1.53564453125	7.9620361328125E-05
50.098672873513	1.53564453125	8.0322265625E-05
50.1986728732605	1.53564453125	7.977294921875E-05
50.2986728730081	1.53564453125	8.038330078125E-05
50.3986728727556	1.53564453125	8.02001953125E-05
50.4986728725031	1.53564453125	8.001708984375E-05
50.5986728722506	1.53564453125	7.958984375E-05
50.6986728719982	1.53564453125	7.9864501953125E-05
50.7986728717457	1.53564453125	8.0322265625E-05
50.8986728714932	1.53564453125	8.0078125E-05
50.9986728712407	1.53564453125	8.050537109375E-05
51.0986728709883	1.53564453125	8.0413818359375E-05
51.1986728707358	1.53564453125	7.965087890625E-05
51.2986728704833	1.53564453125	7.9620361328125E-05
51.3986728702308	1.53564453125	8.038330078125E-05
51.4986728699784	1.53594970703125	7.9559326171875E-05
51.5986728697259	1.53564453125	8.013916015625E-05
51.6986728694734	1.53564453125	8.0169677734375E-05
51.7986728692209	1.53594970703125	8.026123046875E-05
51.8986728689684	1.53594970703125	7.958984375E-05
51.998672868716	1.53594970703125	7.9925537109375E-05
52.0986728684635	1.53594970703125	7.9620361328125E-05
52.198672868211	1.53594970703125	7.9803466796875E-05
52.2986728679585	1.53594970703125	7.977294921875E-05
52.3986728677061	1.53594970703125	8.038330078125E-05
52.4986728674536	1.53594970703125	8.0230712890625E-05
52.5986728672011	1.53594970703125	7.952880859375E-05
52.6986728669486	1.53594970703125	8.0230712890625E-05
52.7986728666962	1.53594970703125	7.952880859375E-05
52.8986728664437	1.53594970703125	7.9620361328125E-05
52.9986728661912	1.53594970703125	7.9742431640625E-05
53.0986728659387	1.53594970703125	8.04443359375E-05
53.1986728656863	1.53594970703125	7.977294921875E-05
53.2986728654338	1.53594970703125	8.0413818359375E-05
53.3986728651813	1.53594970703125	8.0474853515625E-05
53.4986728649288	1.53594970703125	8.013916015625E-05
53.5986728646764	1.53594970703125	7.952880859375E-05
53.6986728644239	1.53594970703125	8.0047607421875E-05
53.7986728641714	1.53594970703125	8.0322265625E-05
53.8986728639189	1.53594970703125	7.958984375E-05
53.9986728636665	1.53594970703125	7.977294921875E-05
54.098672863414	1.53594970703125	8.04443359375E-05
54.1986728631615	1.53594970703125	7.9925537109375E-05
54.298672862909	1.53594970703125	7.9559326171875E-05
54.3986728626566	1.53594970703125	8.0291748046875E-05
54.4986728624041	1.53594970703125	7.97119140625E-05
54.5986728621516	1.53594970703125	7.9559326171875E-05
54.6986728618991	1.53594970703125	8.001708984375E-05
54.7986728616467	1.53594970703125	8.0352783203125E-05
54.8986728613942	1.5362548828125	7.958984375E-05
54.9986728611417	1.53594970703125	7.97119140625E-05
55.0986728608892	1.53594970703125	8.0322265625E-05
55.1986728606367	1.53594970703125	8.0413818359375E-05
55.2986728603843	1.53594970703125	7.9559326171875E-05
55.3986728601318	1.53594970703125	8.0230712890625E-05
55.4986728598793	1.5362548828125	8.038330078125E-05
55.5986728596268	1.5362548828125	7.9559326171875E-05
55.6986728593744	1.5362548828125	7.989501953125E-05
55.7986728591219	1.5362548828125	7.94677734375E-05
55.8986728588694	1.5362548828125	8.001708984375E-05
55.9986728586169	1.5362548828125	7.952880859375E-05
56.0986728583645	1.5362548828125	8.0322265625E-05
56.198672858112	1.5362548828125	8.02001953125E-05
56.2986728578595	1.5362548828125	7.9559326171875E-05
56.398672857607	1.5362548828125	8.038330078125E-05
56.4986728573546	1.5362548828125	8.0413818359375E-05
56.5986728571021	1.5362548828125	7.965087890625E-05
56.6986728568496	1.5362548828125	7.9681396484375E-05
56.7986728565971	1.5362548828125	8.038330078125E-05
56.8986728563447	1.5362548828125	7.9833984375E-05
56.9986728560922	1.5362548828125	7.9681396484375E-05
57.0986728558397	1.5362548828125	7.9742431640625E-05
57.1986728555872	1.5362548828125	8.0322265625E-05
57.2986728553348	1.5362548828125	7.9620361328125E-05
57.3986728550823	1.5362548828125	7.9620361328125E-05
57.4986728548298	1.5362548828125	8.0413818359375E-05
57.5986728545773	1.5362548828125	7.9559326171875E-05
57.6986728543249	1.5362548828125	7.9559326171875E-05
57.7986728540724	1.5362548828125	8.04443359375E-05
57.8986728538199	1.5362548828125	8.0108642578125E-05
57.9986728535674	1.5362548828125	7.958984375E-05
58.098672853315	1.5362548828125	8.001708984375E-05
58.1986728530625	1.5362548828125	8.026123046875E-05
58.29867285281	1.5362548828125	7.9833984375E-05
58.3986728525575	1.53656005859375	7.9864501953125E-05
58.498672852305	1.5362548828125	8.038330078125E-05
58.5986728520526	1.53656005859375	7.9803466796875E-05
58.6986728518001	1.53656005859375	7.958984375E-05
58.7986728515476	1.53656005859375	8.026123046875E-05
58.8986728512951	1.53656005859375	8.04443359375E-05
58.9986728510427	1.53656005859375	7.952880859375E-05
59.0986728507902	1.53656005859375	8.0078125E-05
59.1986728505377	1.53656005859375	8.0322265625E-05
59.2986728502852	1.53656005859375	7.9559326171875E-05
59.3986728500328	1.53656005859375	7.9498291015625E-05
59.4986728497803	1.53656005859375	7.9681396484375E-05
59.5986728495278	1.53656005859375	8.026123046875E-05
59.6986728492753	1.53656005859375	7.958984375E-05
59.7986728490229	1.53656005859375	8.026123046875E-05
59.8986728487704	1.53656005859375	8.026123046875E-05
59.9986728485179	1.53656005859375	8.02001953125E-05
60.0986728482654	1.53656005859375	7.9498291015625E-05
60.198672848013	1.53656005859375	8.026123046875E-05
60.2986728477605	1.53656005859375	8.0108642578125E-05
60.398672847508	1.53656005859375	7.9559326171875E-05
60.4986728472555	1.53656005859375	8.02001953125E-05
60.5986728470031	1.53656005859375	8.04443359375E-05
60.6986728467506	1.53656005859375	8.0322265625E-05
60.7986728464981	1.53656005859375	7.977294921875E-05
60.8986728462456	1.53656005859375	8.0230712890625E-05
60.9986728459932	1.53656005859375	7.952880859375E-05
61.0986728457407	1.53656005859375	7.977294921875E-05
61.1986728454882	1.53656005859375	7.989501953125E-05
61.2986728452357	1.53656005859375	8.0474853515625E-05
61.3986728449833	1.53656005859375	7.958984375E-05
61.4986728447308	1.53656005859375	8.038330078125E-05
61.5986728444783	1.53656005859375	7.9620361328125E-05
61.6986728442258	1.53656005859375	7.9620361328125E-05
61.7986728439734	1.536865234375	7.958984375E-05
61.8986728437209	1.53656005859375	8.0169677734375E-05
61.9986728434684	1.53656005859375	7.9559326171875E-05
62.0986728432159	1.53656005859375	8.026123046875E-05
62.1986728429634	1.53656005859375	8.0047607421875E-05
62.298672842711	1.53656005859375	7.952880859375E-05
62.3986728424585	1.536865234375	7.9498291015625E-05
62.498672842206	1.53656005859375	7.952880859375E-05
62.5986728419535	1.53656005859375	8.0108642578125E-05
62.6986728417011	1.536865234375	7.965087890625E-05
62.7986728414486	1.53656005859375	8.038330078125E-05
62.8986728411961	1.536865234375	7.965087890625E-05
62.9986728409436	1.536865234375	8.026123046875E-05
63.0986728406912	1.536865234375	7.9681396484375E-05
63.1986728404387	1.536865234375	8.0352783203125E-05
63.2986728401862	1.536865234375	7.952880859375E-05
63.3986728399337	1.536865234375	8.04443359375E-05
63.4986728396813	1.536865234375	8.001708984375E-05
63.5986728394288	1.536865234375	8.050537109375E-05
63.6986728391763	1.536865234375	8.04443359375E-05
63.7986728389238	1.536865234375	8.038330078125E-05
63.8986728386714	1.536865234375	7.9742431640625E-05
63.9986728384189	1.536865234375	7.9864501953125E-05
64.0986728381664	1.536865234375	8.0352783203125E-05
64.1986728379139	1.536865234375	7.99560546875E-05
64.2986728376615	1.536865234375	8.0474853515625E-05
64.398672837409	1.536865234375	7.9833984375E-05
64.4986728371565	1.536865234375	7.989501953125E-05
64.598672836904	1.536865234375	7.9681396484375E-05
64.6986728366516	1.536865234375	8.0413818359375E-05
64.7986728363991	1.536865234375	8.02001953125E-05
64.8986728361466	1.536865234375	8.0352783203125E-05
64.9986728358941	1.536865234375	7.958984375E-05
65.0986728356417	1.536865234375	8.0322265625E-05
65.1986728353892	1.536865234375	7.9559326171875E-05
65.2986728351367	1.536865234375	8.0413818359375E-05
65.3986728348842	1.536865234375	7.9498291015625E-05
65.4986728346317	1.536865234375	7.9864501953125E-05
65.5986728343793	1.536865234375	7.958984375E-05
65.6986728341268	1.536865234375	8.038330078125E-05
65.7986728338743	1.536865234375	7.952880859375E-05
65.8986728336218	1.536865234375	8.02001953125E-05
65.9986728333694	1.53717041015625	7.9498291015625E-05
66.0986728331169	1.536865234375	7.977294921875E-05
66.1986728328644	1.53717041015625	7.952880859375E-05
66.2986728326119	1.53717041015625	8.0322265625E-05
66.3986728323595	1.53717041015625	7.9620361328125E-05
66.498672832107	1.53717041015625	8.0047607421875E-05
66.5986728318545	1.53717041015625	7.958984375E-05
66.698672831602	1.53717041015625	7.94677734375E-05
66.7986728313496	1.53717041015625	7.9559326171875E-05
66.8986728310971	1.53717041015625	7.9925537109375E-05
66.9986728308446	1.53717041015625	8.0047607421875E-05
67.0986728305921	1.53717041015625	7.9681396484375E-05
67.1986728303397	1.53717041015625	7.99560546875E-05
67.2986728300872	1.53717041015625	7.977294921875E-05
67.3986728298347	1.53717041015625	7.9986572265625E-05
67.4986728295822	1.53717041015625	7.9681396484375E-05
67.5986728293298	1.53717041015625	8.038330078125E-05
67.6986728290773	1.53717041015625	7.94677734375E-05
67.7986728288248	1.53717041015625	8.0322265625E-05
67.8986728285723	1.53717041015625	8.0108642578125E-05
67.9986728283199	1.53717041015625	8.038330078125E-05
68.0986728280674	1.53717041015625	7.952880859375E-05
68.1986728278149	1.53717041015625	8.038330078125E-05
68.2986728275624	1.53717041015625	7.952880859375E-05
68.39867282731	1.53717041015625	8.038330078125E-05
68.4986728270575	1.53717041015625	8.013916015625E-05
68.598672826805	1.53717041015625	8.038330078125E-05
68.6986728265525	1.53717041015625	7.9620361328125E-05
68.7986728263	1.53717041015625	8.0230712890625E-05
68.8986728260476	1.53717041015625	7.9742431640625E-05
68.9986728257951	1.53717041015625	8.0413818359375E-05
69.0986728255426	1.53717041015625	8.0413818359375E-05
69.1986728252901	1.53717041015625	8.0291748046875E-05
69.2986728250377	1.53717041015625	7.9864501953125E-05
69.3986728247852	1.53717041015625	7.989501953125E-05
69.4986728245327	1.53717041015625	8.0047607421875E-05
69.5986728242802	1.53717041015625	8.0352783203125E-05
69.6986728240278	1.53717041015625	8.050537109375E-05
69.7986728237753	1.53717041015625	8.02001953125E-05
69.8986728235228	1.53717041015625	8.0108642578125E-05
69.9986728232703	1.53717041015625	7.9681396484375E-05
70.0986728230179	1.53717041015625	8.0230712890625E-05
70.1986728227654	1.5374755859375	8.0291748046875E-05
70.2986728225129	1.53717041015625	8.0413818359375E-05
70.3986728222604	1.5374755859375	8.0047607421875E-05
70.498672822008	1.5374755859375	8.026123046875E-05
70.5986728217555	1.5374755859375	7.965087890625E-05
70.698672821503	1.5374755859375	8.0322265625E-05
70.7986728212505	1.5374755859375	7.99560546875E-05
70.8986728209981	1.5374755859375	8.038330078125E-05
70.9986728207456	1.5374755859375	7.97119140625E-05
71.0986728204931	1.5374755859375	8.0352783203125E-05
71.1986728202406	1.5374755859375	7.9498291015625E-05
71.2986728199882	1.5374755859375	8.0352783203125E-05
71.3986728197357	1.5374755859375	7.97119140625E-05
71.4986728194832	1.5374755859375	8.026123046875E-05
71.5986728192307	1.5374755859375	7.958984375E-05
71.6986728189783	1.5374755859375	8.038330078125E-05
71.7986728187258	1.5374755859375	7.952880859375E-05
71.8986728184733	1.5374755859375	8.0322265625E-05
71.9986728182208	1.5374755859375	7.9620361328125E-05
72.0986728179684	1.5374755859375	8.001708984375E-05
72.1986728177159	1.5374755859375	7.9559326171875E-05
72.2986728174634	1.5374755859375	8.0322265625E-05
72.3986728172109	1.5374755859375	7.9833984375E-05
72.4986728169584	1.5374755859375	7.99560546875E-05
72.598672816706	1.5374755859375	7.952880859375E-05
72.6986728164535	1.5374755859375	7.965087890625E-05
72.798672816201	1.5374755859375	7.952880859375E-05
72.8986728159485	1.5374755859375	7.9986572265625E-05
72.9986728156961	1.5374755859375	8.026123046875E-05
73.0986728154436	1.5374755859375	7.9833984375E-05
73.1986728151911	1.5374755859375	7.952880859375E-05
73.2986728149386	1.5374755859375	7.958984375E-05
73.3986728146862	1.5374755859375	7.965087890625E-05
73.4986728144337	1.53778076171875	7.9742431640625E-05
73.5986728141812	1.5374755859375	8.038330078125E-05
73.6986728139287	1.5374755859375	7.9559326171875E-05
73.7986728136763	1.53778076171875	7.9864501953125E-05
73.8986728134238	1.53778076171875	7.94677734375E-05
73.9986728131713	1.53778076171875	8.0322265625E-05
74.0986728129188	1.53778076171875	7.9559326171875E-05
74.1986728126664	1.53778076171875	8.001708984375E-05
74.2986728124139	1.53778076171875	8.02001953125E-05
74.3986728121614	1.53778076171875	8.0474853515625E-05
74.4986728119089	1.53778076171875	8.02001953125E-05
74.5986728116565	1.53778076171875	8.0230712890625E-05
74.698672811404	1.53778076171875	8.0322265625E-05
74.7986728111515	1.53778076171875	7.952880859375E-05
74.898672810899	1.53778076171875	8.0474853515625E-05
74.9986728106466	1.53778076171875	8.0047607421875E-05
75.0986728103941	1.53778076171875	8.0474853515625E-05
75.1986728101416	1.53778076171875	7.977294921875E-05
75.2986728098891	1.53778076171875	8.038330078125E-05
75.3986728096367	1.53778076171875	7.952880859375E-05
75.4986728093842	1.53778076171875	8.013916015625E-05
75.5986728091317	1.53778076171875	7.958984375E-05
75.6986728088792	1.53778076171875	8.0230712890625E-05
75.7986728086267	1.53778076171875	7.965087890625E-05
75.8986728083743	1.53778076171875	8.026123046875E-05
75.9986728081218	1.53778076171875	8.013916015625E-05
76.0986728078693	1.53778076171875	7.9742431640625E-05
76.1986728076168	1.53778076171875	7.965087890625E-05
76.2986728073644	1.53778076171875	7.952880859375E-05
76.3986728071119	1.53778076171875	7.952880859375E-05
76.4986728068594	1.53778076171875	7.977294921875E-05
76.5986728066069	1.53778076171875	8.038330078125E-05
76.6986728063545	1.53778076171875	7.9559326171875E-05
76.798672806102	1.53778076171875	8.026123046875E-05
76.8986728058495	1.5380859375	7.9498291015625E-05
76.998672805597	1.5380859375	7.989501953125E-05
77.0986728053446	1.5380859375	7.958984375E-05
77.1986728050921	1.5380859375	8.0169677734375E-05
77.2986728048396	1.5380859375	7.989501953125E-05
77.3986728045871	1.5380859375	8.0413818359375E-05
77.4986728043347	1.5380859375	8.038330078125E-05
77.5986728040822	1.5380859375	8.0291748046875E-05
77.6986728038297	1.5380859375	7.9498291015625E-05
77.7986728035772	1.5380859375	7.977294921875E-05
77.8986728033248	1.5380859375	8.0291748046875E-05
77.9986728030723	1.5380859375	7.9803466796875E-05
78.0986728028198	1.5380859375	8.050537109375E-05
78.1986728025673	1.5380859375	8.0413818359375E-05
78.2986728023149	1.5380859375	7.99560546875E-05
78.3986728020624	1.5380859375	7.952880859375E-05
78.4986728018099	1.5380859375	8.0352783203125E-05
78.5986728015574	1.5380859375	7.97119140625E-05
78.698672801305	1.5380859375	8.0322265625E-05
78.7986728010525	1.5380859375	8.0108642578125E-05
78.8986728008	1.5380859375	8.0352783203125E-05
78.9986728005475	1.5380859375	7.965087890625E-05
79.098672800295	1.5380859375	8.0047607421875E-05
79.1986728000426	1.5380859375	7.952880859375E-05
79.2986727997901	1.5380859375	7.9833984375E-05
79.3986727995376	1.5380859375	7.9681396484375E-05
79.4986727992851	1.5380859375	8.04443359375E-05
79.5986727990327	1.5380859375	8.0230712890625E-05
79.6986727987802	1.5380859375	7.9498291015625E-05
79.7986727985277	1.5380859375	7.9864501953125E-05
79.8986727982752	1.5380859375	7.94677734375E-05
79.9986727980228	1.5380859375	7.958984375E-05
80.0986727977703	1.5380859375	7.977294921875E-05
80.1986727975178	1.5380859375	8.04443359375E-05
80.2986727972653	1.5380859375	7.97119140625E-05
80.3986727970129	1.5380859375	8.0413818359375E-05
80.4986727967604	1.5380859375	7.989501953125E-05
80.5986727965079	1.5380859375	8.0291748046875E-05
80.6986727962554	1.5380859375	7.952880859375E-05
80.798672796003	1.5380859375	8.0047607421875E-05
80.8986727957505	1.5380859375	8.0352783203125E-05
80.998672795498	1.53839111328125	7.9681396484375E-05
81.0986727952455	1.53839111328125	8.0413818359375E-05
81.1986727949931	1.53839111328125	8.0413818359375E-05
81.2986727947406	1.53839111328125	8.0108642578125E-05
81.3986727944881	1.53839111328125	7.9559326171875E-05
81.4986727942356	1.53839111328125	8.001708984375E-05
81.5986727939832	1.53839111328125	7.94677734375E-05
81.6986727937307	1.53839111328125	7.9803466796875E-05
81.7986727934782	1.53839111328125	7.9833984375E-05
81.8986727932257	1.53839111328125	8.038330078125E-05
81.9986727929733	1.53839111328125	7.9620361328125E-05
82.0986727927208	1.53839111328125	7.965087890625E-05
82.1986727924683	1.53839111328125	7.989501953125E-05
82.2986727922158	1.53839111328125	7.94677734375E-05
82.3986727919633	1.53839111328125	7.958984375E-05
82.4986727917109	1.53839111328125	8.0352783203125E-05
82.5986727914584	1.53839111328125	8.0047607421875E-05
82.6986727912059	1.53839111328125	7.9559326171875E-05
82.7986727909534	1.53839111328125	8.0352783203125E-05
82.898672790701	1.53839111328125	8.0108642578125E-05
82.9986727904485	1.53839111328125	7.952880859375E-05
83.098672790196	1.53839111328125	8.0230712890625E-05
83.1986727899435	1.53839111328125	8.038330078125E-05
83.2986727896911	1.53839111328125	7.9559326171875E-05
83.3986727894386	1.53839111328125	8.04443359375E-05
83.4986727891861	1.53839111328125	7.9986572265625E-05
83.5986727889336	1.53839111328125	7.965087890625E-05
83.6986727886812	1.53839111328125	7.9986572265625E-05
83.7986727884287	1.53839111328125	8.0322265625E-05
83.8986727881762	1.53839111328125	7.9620361328125E-05
83.9986727879237	1.53839111328125	8.038330078125E-05
84.0986727876713	1.53839111328125	8.04443359375E-05
84.1986727874188	1.53839111328125	8.02001953125E-05
84.2986727871663	1.53839111328125	7.9620361328125E-05
84.3986727869138	1.53839111328125	8.0322265625E-05
84.4986727866614	1.53839111328125	8.013916015625E-05
84.5986727864089	1.53839111328125	7.9620361328125E-05
84.6986727861564	1.53839111328125	7.977294921875E-05
84.7986727859039	1.53839111328125	8.0413818359375E-05
84.8986727856515	1.53839111328125	7.952880859375E-05
84.998672785399	1.53839111328125	7.9925537109375E-05
85.0986727851465	1.53839111328125	8.0291748046875E-05
85.198672784894	1.53839111328125	7.958984375E-05
85.2986727846416	1.53839111328125	7.94677734375E-05
85.3986727843891	1.53839111328125	8.001708984375E-05
85.4986727841366	1.53839111328125	8.0078125E-05
85.5986727838841	1.53839111328125	7.9620361328125E-05
85.6986727836317	1.53839111328125	8.04443359375E-05
85.7986727833792	1.53839111328125	7.9681396484375E-05
85.8986727831267	1.5386962890625	7.977294921875E-05
85.9986727828742	1.5386962890625	7.9620361328125E-05
86.0986727826217	1.5386962890625	8.0230712890625E-05
86.1986727823693	1.5386962890625	7.9559326171875E-05
86.2986727821168	1.5386962890625	7.9925537109375E-05
86.3986727818643	1.5386962890625	8.0169677734375E-05
86.4986727816118	1.5386962890625	8.026123046875E-05
86.5986727813594	1.5386962890625	7.9559326171875E-05
86.6986727811069	1.5386962890625	8.0322265625E-05
86.7986727808544	1.5386962890625	7.952880859375E-05
86.8986727806019	1.5386962890625	8.026123046875E-05
86.9986727803495	1.5386962890625	8.0108642578125E-05
87.098672780097	1.5386962890625	8.026123046875E-05
87.1986727798445	1.5386962890625	7.9559326171875E-05
87.298672779592	1.5386962890625	8.038330078125E-05
87.3986727793396	1.5386962890625	7.952880859375E-05
87.4986727790871	1.5386962890625	8.0108642578125E-05
87.5986727788346	1.5386962890625	8.0230712890625E-05
87.6986727785821	1.5386962890625	8.04443359375E-05
87.7986727783297	1.5386962890625	7.9498291015625E-05
87.8986727780772	1.5386962890625	8.0352783203125E-05
87.9986727778247	1.5386962890625	7.9559326171875E-05
88.0986727775722	1.5386962890625	8.001708984375E-05
88.1986727773198	1.5386962890625	8.026123046875E-05
88.2986727770673	1.5386962890625	8.04443359375E-05
88.3986727768148	1.53900146484375	7.958984375E-05
88.4986727765623	1.5386962890625	8.0352783203125E-05
88.5986727763099	1.53900146484375	7.9620361328125E-05
88.6986727760574	1.5386962890625	7.9833984375E-05
88.7986727758049	1.53900146484375	8.0322265625E-05
88.8986727755524	1.53900146484375	8.0322265625E-05
88.9986727753	1.53900146484375	7.9559326171875E-05
89.0986727750475	1.53900146484375	8.0291748046875E-05
89.198672774795	1.53900146484375	7.965087890625E-05
89.2986727745425	1.53900146484375	7.9986572265625E-05
89.39867277429	1.53900146484375	8.0291748046875E-05
89.4986727740376	1.53900146484375	8.0322265625E-05
89.5986727737851	1.53900146484375	7.9681396484375E-05
89.6986727735326	1.53900146484375	8.038330078125E-05
89.7986727732801	1.53900146484375	7.97119140625E-05
89.8986727730277	1.53900146484375	7.977294921875E-05
89.9986727727752	1.53900146484375	8.0291748046875E-05
90.0986727725227	1.53900146484375	8.0413818359375E-05
90.1986727722702	1.53900146484375	7.952880859375E-05
90.2986727720178	1.53900146484375	8.0352783203125E-05
90.3986727717653	1.53900146484375	7.958984375E-05
90.4986727715128	1.53900146484375	7.9925537109375E-05
90.5986727712603	1.53900146484375	8.0078125E-05
90.6986727710079	1.53900146484375	8.0352783203125E-05
90.7986727707554	1.53900146484375	7.958984375E-05
90.8986727705029	1.53900146484375	8.0169677734375E-05
90.9986727702504	1.53900146484375	7.965087890625E-05
91.098672769998	1.53900146484375	7.989501953125E-05
91.1986727697455	1.539306640625	8.0322265625E-05
91.298672769493	1.539306640625	7.9925537109375E-05
91.3986727692405	1.539306640625	7.97119140625E-05
91.4986727689881	1.539306640625	8.001708984375E-05
91.5986727687356	1.539306640625	7.9864501953125E-05
91.6986727684831	1.539306640625	7.9864501953125E-05
91.7986727682306	1.539306640625	8.038330078125E-05
91.8986727679782	1.539306640625	7.9620361328125E-05
91.9986727677257	1.539306640625	7.9833984375E-05
92.0986727674732	1.539306640625	7.9803466796875E-05
92.1986727672207	1.539306640625	8.0047607421875E-05
92.2986727669683	1.539306640625	7.9620361328125E-05
92.3986727667158	1.539306640625	8.038330078125E-05
92.4986727664633	1.539306640625	7.94677734375E-05
92.5986727662108	1.539306640625	7.9925537109375E-05
92.6986727659583	1.539306640625	7.9620361328125E-05
92.7986727657059	1.539306640625	8.0230712890625E-05
92.8986727654534	1.539306640625	7.9681396484375E-05
92.9986727652009	1.539306640625	8.0413818359375E-05
93.0986727649484	1.539306640625	7.9498291015625E-05
93.198672764696	1.539306640625	7.9833984375E-05
93.2986727644435	1.539306640625	7.9833984375E-05
93.398672764191	1.539306640625	8.0169677734375E-05
93.4986727639385	1.539306640625	7.9681396484375E-05
93.5986727636861	1.539306640625	8.0352783203125E-05
93.6986727634336	1.539306640625	7.9620361328125E-05
93.7986727631811	1.539306640625	7.9986572265625E-05
93.8986727629286	1.539306640625	7.9620361328125E-05
93.9986727626762	1.539306640625	8.0413818359375E-05
94.0986727624237	1.539306640625	7.958984375E-05
94.1986727621712	1.539306640625	8.038330078125E-05
94.2986727619187	1.539306640625	7.9559326171875E-05
94.3986727616663	1.539306640625	7.99560546875E-05
94.4986727614138	1.539306640625	7.965087890625E-05
94.5986727611613	1.539306640625	8.0352783203125E-05
94.6986727609088	1.53961181640625	7.9559326171875E-05
94.7986727606564	1.539306640625	8.04443359375E-05
94.8986727604039	1.53961181640625	8.0169677734375E-05
94.9986727601514	1.539306640625	8.0322265625E-05
95.0986727598989	1.53961181640625	7.952880859375E-05
95.1986727596465	1.539306640625	8.0322265625E-05
95.298672759394	1.53961181640625	7.958984375E-05
95.3986727591415	1.53961181640625	8.0413818359375E-05
95.498672758889	1.53961181640625	7.9986572265625E-05
95.5986727586366	1.53961181640625	8.0291748046875E-05
95.6986727583841	1.53961181640625	7.952880859375E-05
95.7986727581316	1.53961181640625	8.0291748046875E-05
95.8986727578791	1.53961181640625	7.97119140625E-05
95.9986727576267	1.53961181640625	8.0078125E-05
96.0986727573742	1.53961181640625	8.026123046875E-05
96.1986727571217	1.53961181640625	8.0413818359375E-05
96.2986727568692	1.53961181640625	7.97119140625E-05
96.3986727566167	1.53961181640625	7.9864501953125E-05
96.4986727563643	1.53961181640625	8.02001953125E-05
96.5986727561118	1.53961181640625	7.97119140625E-05
96.6986727558593	1.53961181640625	8.04443359375E-05
96.7986727556068	1.53961181640625	8.0413818359375E-05
96.8986727553544	1.53961181640625	8.0169677734375E-05
96.9986727551019	1.53961181640625	7.958984375E-05
97.0986727548494	1.53961181640625	8.038330078125E-05
97.1986727545969	1.53961181640625	7.9559326171875E-05
97.2986727543445	1.53961181640625	8.0047607421875E-05
97.398672754092	1.53961181640625	8.0169677734375E-05
97.4986727538395	1.53961181640625	8.0291748046875E-05
97.598672753587	1.53961181640625	7.958984375E-05
97.6986727533346	1.53961181640625	8.04443359375E-05
97.7986727530821	1.53961181640625	7.952880859375E-05
97.8986727528296	1.53961181640625	7.9864501953125E-05
97.9986727525771	1.53961181640625	7.989501953125E-05
98.0986727523247	1.53961181640625	8.0413818359375E-05
98.1986727520722	1.53961181640625	7.9620361328125E-05
98.2986727518197	1.53961181640625	8.013916015625E-05
98.3986727515672	1.53961181640625	7.9833984375E-05
98.4986727513148	1.53961181640625	7.958984375E-05
98.5986727510623	1.53961181640625	7.9620361328125E-05
98.6986727508098	1.53961181640625	8.0078125E-05
98.7986727505573	1.53961181640625	8.026123046875E-05
98.8986727503049	1.53961181640625	7.9620361328125E-05
98.9986727500524	1.53961181640625	8.0352783203125E-05
99.0986727497999	1.53961181640625	8.0108642578125E-05
99.1986727495474	1.53961181640625	7.97119140625E-05
99.298672749295	1.53961181640625	7.965087890625E-05
99.3986727490425	1.53961181640625	8.038330078125E-05
99.49867274879	1.53961181640625	7.9620361328125E-05
99.5986727485375	1.53961181640625	8.0413818359375E-05
99.698672748285	1.53961181640625	8.0413818359375E-05
99.7986727480326	1.53961181640625	7.99560546875E-05
99.8986727477801	1.53961181640625	8.0230712890625E-05
99.9986727475276	1.53961181640625	7.97119140625E-05
100.098672747275	1.53961181640625	7.965087890625E-05
100.198672747023	1.53961181640625	8.0047607421875E-05
100.29867274677	1.5399169921875	8.0352783203125E-05
100.398672746518	1.5399169921875	8.04443359375E-05
100.498672746265	1.5399169921875	7.965087890625E-05
100.598672746013	1.5399169921875	7.965087890625E-05
100.69867274576	1.53961181640625	8.038330078125E-05
100.798672745508	1.5399169921875	7.965087890625E-05
100.898672745255	1.5399169921875	7.958984375E-05
100.998672745003	1.5399169921875	8.013916015625E-05
101.09867274475	1.5399169921875	8.0078125E-05
101.198672744498	1.5399169921875	7.9559326171875E-05
101.298672744245	1.5399169921875	8.026123046875E-05
101.398672743993	1.5399169921875	7.958984375E-05
101.49867274374	1.5399169921875	7.9803466796875E-05
101.598672743488	1.5399169921875	8.013916015625E-05
101.698672743236	1.5399169921875	8.0291748046875E-05
101.798672742983	1.5399169921875	7.9559326171875E-05
101.898672742731	1.5399169921875	8.038330078125E-05
101.998672742478	1.5399169921875	7.97119140625E-05
102.098672742226	1.5399169921875	7.9437255859375E-05
102.198672741973	1.5399169921875	7.958984375E-05
102.298672741721	1.5399169921875	8.038330078125E-05
102.398672741468	1.5399169921875	7.977294921875E-05
102.498672741216	1.5399169921875	7.977294921875E-05
102.598672740963	1.5399169921875	8.0230712890625E-05
102.698672740711	1.5399169921875	7.9864501953125E-05
102.798672740458	1.5399169921875	7.9437255859375E-05
102.898672740206	1.5399169921875	8.0291748046875E-05
102.998672739953	1.5399169921875	8.0230712890625E-05
103.098672739701	1.5399169921875	7.958984375E-05
103.198672739448	1.54022216796875	8.0352783203125E-05
103.298672739196	1.54022216796875	8.0352783203125E-05
103.398672738943	1.54022216796875	8.0169677734375E-05
103.498672738691	1.54022216796875	7.9681396484375E-05
103.598672738438	1.54022216796875	8.038330078125E-05
103.698672738186	1.54022216796875	7.958984375E-05
103.798672737934	1.54022216796875	8.013916015625E-05
103.898672737681	1.54022216796875	7.9742431640625E-05
103.998672737429	1.54022216796875	8.0474853515625E-05
104.098672737176	1.54022216796875	7.952880859375E-05
104.198672736924	1.54022216796875	8.0047607421875E-05
104.298672736671	1.54022216796875	8.0291748046875E-05
104.398672736419	1.54022216796875	7.958984375E-05
104.498672736166	1.54022216796875	7.9437255859375E-05
104.598672735914	1.54022216796875	8.0047607421875E-05
104.698672735661	1.54022216796875	7.9498291015625E-05
104.798672735409	1.54022216796875	7.977294921875E-05
104.898672735156	1.54022216796875	8.038330078125E-05
104.998672734904	1.54022216796875	7.952880859375E-05
105.098672734651	1.54022216796875	7.9559326171875E-05
105.198672734399	1.54022216796875	7.9986572265625E-05
105.298672734146	1.54022216796875	7.9986572265625E-05
105.398672733894	1.54022216796875	7.952880859375E-05
105.498672733641	1.54022216796875	8.0291748046875E-05
105.598672733389	1.54022216796875	7.9620361328125E-05
105.698672733137	1.54022216796875	8.0108642578125E-05
105.798672732884	1.54022216796875	7.94677734375E-05
105.898672732632	1.54022216796875	8.026123046875E-05
105.998672732379	1.54022216796875	7.952880859375E-05
106.098672732127	1.54022216796875	8.013916015625E-05
106.198672731874	1.54022216796875	8.0291748046875E-05
106.298672731622	1.54022216796875	8.0474853515625E-05
106.398672731369	1.54022216796875	7.9833984375E-05
106.498672731117	1.54022216796875	8.04443359375E-05
106.598672730864	1.54022216796875	7.9681396484375E-05
106.698672730612	1.54022216796875	7.9620361328125E-05
106.798672730359	1.54022216796875	8.04443359375E-05
106.898672730107	1.54022216796875	8.0078125E-05
106.998672729854	1.54022216796875	8.0474853515625E-05
107.098672729602	1.54022216796875	8.026123046875E-05
107.198672729349	1.54022216796875	8.0352783203125E-05
107.298672729097	1.54022216796875	7.952880859375E-05
107.398672728844	1.54052734375	8.013916015625E-05
107.498672728592	1.54022216796875	7.958984375E-05
107.598672728339	1.54052734375	7.9833984375E-05
107.698672728087	1.54052734375	7.9681396484375E-05
107.798672727835	1.54022216796875	8.050537109375E-05
107.898672727582	1.54052734375	8.0169677734375E-05
107.99867272733	1.54052734375	7.9559326171875E-05
108.098672727077	1.54052734375	7.9681396484375E-05
108.198672726825	1.54052734375	7.940673828125E-05
108.298672726572	1.54052734375	7.9498291015625E-05
108.39867272632	1.54052734375	7.9681396484375E-05
108.498672726067	1.54052734375	8.04443359375E-05
108.598672725815	1.54052734375	7.952880859375E-05
108.698672725562	1.54052734375	8.0352783203125E-05
108.79867272531	1.54052734375	7.9742431640625E-05
108.898672725057	1.54052734375	8.0047607421875E-05
108.998672724805	1.54052734375	7.94677734375E-05
109.098672724552	1.54052734375	8.0047607421875E-05
109.1986727243	1.54052734375	8.0230712890625E-05
109.298672724047	1.54052734375	8.02001953125E-05
109.398672723795	1.54052734375	8.0474853515625E-05
109.498672723542	1.54052734375	8.04443359375E-05
109.59867272329	1.54052734375	7.9742431640625E-05
109.698672723037	1.54052734375	7.952880859375E-05
109.798672722785	1.54052734375	8.0474853515625E-05
109.898672722533	1.54052734375	7.952880859375E-05
109.99867272228	1.54052734375	7.965087890625E-05
110.098672722028	1.54052734375	8.0352783203125E-05
110.198672721775	1.54052734375	8.0322265625E-05
110.298672721523	1.54052734375	7.952880859375E-05
110.39867272127	1.54052734375	7.9986572265625E-05
110.498672721018	1.54052734375	7.97119140625E-05
110.598672720765	1.54052734375	7.9437255859375E-05
110.698672720513	1.54052734375	7.958984375E-05
110.79867272026	1.54052734375	8.0474853515625E-05
110.898672720008	1.54052734375	8.001708984375E-05
110.998672719755	1.54052734375	7.952880859375E-05
111.098672719503	1.54052734375	8.0322265625E-05
111.19867271925	1.54052734375	8.0108642578125E-05
111.298672718998	1.54052734375	7.952880859375E-05
111.398672718745	1.54052734375	7.9803466796875E-05
111.498672718493	1.54052734375	8.0413818359375E-05
111.59867271824	1.54052734375	7.9681396484375E-05
111.698672717988	1.54052734375	8.038330078125E-05
111.798672717735	1.54052734375	8.0596923828125E-05
111.898672717483	1.54052734375	8.001708984375E-05
111.998672717231	1.54052734375	7.952880859375E-05
112.098672716978	1.54052734375	8.0047607421875E-05
112.198672716726	1.54052734375	8.0322265625E-05
112.298672716473	1.54052734375	7.965087890625E-05
112.398672716221	1.54052734375	7.97119140625E-05
112.498672715968	1.54052734375	8.04443359375E-05
112.598672715716	1.54052734375	7.9620361328125E-05
112.698672715463	1.54052734375	7.952880859375E-05
112.798672715211	1.54052734375	8.038330078125E-05
112.898672714958	1.54052734375	7.9498291015625E-05
112.998672714706	1.54052734375	7.9498291015625E-05
113.098672714453	1.54052734375	8.0047607421875E-05
113.198672714201	1.54052734375	8.0413818359375E-05
113.298672713948	1.54052734375	7.958984375E-05
113.398672713696	1.54052734375	7.9803466796875E-05
113.498672713443	1.54052734375	8.026123046875E-05
113.598672713191	1.54052734375	8.0352783203125E-05
113.698672712938	1.54052734375	7.94677734375E-05
113.798672712686	1.54052734375	8.026123046875E-05
113.898672712433	1.54052734375	8.038330078125E-05
113.998672712181	1.54052734375	7.958984375E-05
114.098672711929	1.54052734375	8.038330078125E-05
114.198672711676	1.54052734375	8.0413818359375E-05
114.298672711424	1.54052734375	7.958984375E-05
114.398672711171	1.54052734375	7.965087890625E-05
114.498672710919	1.54052734375	8.0413818359375E-05
114.598672710666	1.54052734375	8.0291748046875E-05
114.698672710414	1.54052734375	7.9620361328125E-05
114.798672710161	1.54052734375	7.9681396484375E-05
114.898672709909	1.54052734375	8.04443359375E-05
114.998672709656	1.54052734375	7.9803466796875E-05
115.098672709404	1.54052734375	7.9498291015625E-05
115.198672709151	1.54052734375	8.0108642578125E-05
115.298672708899	1.54052734375	7.9986572265625E-05
115.398672708646	1.54052734375	7.9559326171875E-05
115.498672708394	1.54052734375	7.965087890625E-05
115.598672708141	1.54052734375	8.038330078125E-05
115.698672707889	1.54052734375	7.9742431640625E-05
115.798672707636	1.54052734375	7.9498291015625E-05
115.898672707384	1.54052734375	8.0413818359375E-05
115.998672707132	1.54052734375	8.0413818359375E-05
116.098672706879	1.54052734375	7.958984375E-05
116.198672706627	1.54052734375	7.9833984375E-05
116.298672706374	1.54052734375	8.0352783203125E-05
116.398672706122	1.54052734375	7.965087890625E-05
116.498672705869	1.54052734375	7.99560546875E-05
116.598672705617	1.54052734375	7.97119140625E-05
116.698672705364	1.54052734375	8.0169677734375E-05
116.798672705112	1.54052734375	7.9559326171875E-05
116.898672704859	1.54052734375	8.038330078125E-05
116.998672704607	1.54052734375	8.0078125E-05
117.098672704354	1.54052734375	7.958984375E-05
117.198672704102	1.54052734375	7.9620361328125E-05
117.298672703849	1.54052734375	8.038330078125E-05
117.398672703597	1.54052734375	7.9498291015625E-05
117.498672703344	1.54052734375	8.0078125E-05
117.598672703092	1.54052734375	8.0322265625E-05
117.698672702839	1.54052734375	7.94677734375E-05
117.798672702587	1.54052734375	7.9498291015625E-05
117.898672702334	1.54052734375	8.038330078125E-05
117.998672702082	1.54052734375	7.97119140625E-05
118.09867270183	1.54052734375	7.9559326171875E-05
118.198672701577	1.54052734375	8.0474853515625E-05
118.298672701325	1.54052734375	7.958984375E-05
118.398672701072	1.54052734375	7.99560546875E-05
118.49867270082	1.54052734375	8.001708984375E-05
118.598672700567	1.54052734375	8.0108642578125E-05
118.698672700315	1.54083251953125	7.9498291015625E-05
118.798672700062	1.54052734375	8.026123046875E-05
118.89867269981	1.54052734375	7.99560546875E-05
118.998672699557	1.54052734375	8.0230712890625E-05
119.098672699305	1.54052734375	7.9620361328125E-05
119.198672699052	1.54052734375	8.0322265625E-05
119.2986726988	1.54052734375	7.952880859375E-05
119.398672698547	1.54052734375	7.9925537109375E-05
119.498672698295	1.54083251953125	8.026123046875E-05
119.598672698042	1.54052734375	8.04443359375E-05
119.69867269779	1.54052734375	7.9498291015625E-05
119.798672697537	1.54052734375	8.0413818359375E-05
119.898672697285	1.54052734375	7.9833984375E-05
119.998672697032	1.54083251953125	7.9559326171875E-05
120.09867269678	1.54083251953125	8.0413818359375E-05
120.198672696528	1.54052734375	8.026123046875E-05
120.298672696275	1.54083251953125	7.977294921875E-05
120.398672696023	1.54052734375	7.9925537109375E-05
120.49867269577	1.54083251953125	8.0291748046875E-05
120.598672695518	1.54083251953125	7.9498291015625E-05
120.698672695265	1.54083251953125	8.0169677734375E-05
120.798672695013	1.54083251953125	7.965087890625E-05
120.89867269476	1.54083251953125	8.0291748046875E-05
120.998672694508	1.54083251953125	7.9620361328125E-05
121.098672694255	1.54083251953125	8.0352783203125E-05
121.198672694003	1.54083251953125	7.9864501953125E-05
121.29867269375	1.54083251953125	7.97119140625E-05
121.398672693498	1.54083251953125	7.94677734375E-05
121.498672693245	1.54083251953125	8.038330078125E-05
121.598672692993	1.54083251953125	7.958984375E-05
121.69867269274	1.54083251953125	8.0108642578125E-05
121.798672692488	1.54083251953125	8.026123046875E-05
121.898672692235	1.54083251953125	7.9559326171875E-05
121.998672691983	1.54083251953125	7.9681396484375E-05
122.09867269173	1.54083251953125	7.9803466796875E-05
122.198672691478	1.54083251953125	7.9803466796875E-05
122.298672691226	1.54083251953125	7.9620361328125E-05
122.398672690973	1.54083251953125	8.04443359375E-05
122.498672690721	1.54083251953125	7.965087890625E-05
122.598672690468	1.54083251953125	8.026123046875E-05
122.698672690216	1.54083251953125	7.952880859375E-05
122.798672689963	1.54083251953125	8.038330078125E-05
122.898672689711	1.54083251953125	7.9559326171875E-05
122.998672689458	1.54083251953125	8.013916015625E-05
123.098672689206	1.54052734375	8.0047607421875E-05
123.198672688953	1.54083251953125	8.0474853515625E-05
123.298672688701	1.54083251953125	7.9620361328125E-05
123.398672688448	1.54083251953125	8.0291748046875E-05
123.498672688196	1.54083251953125	7.958984375E-05
123.598672687943	1.54083251953125	7.977294921875E-05
123.698672687691	1.54083251953125	8.0352783203125E-05
123.798672687438	1.54083251953125	7.9925537109375E-05
123.898672687186	1.54083251953125	7.9864501953125E-05
123.998672686933	1.54083251953125	8.0108642578125E-05
124.098672686681	1.54083251953125	8.0108642578125E-05
124.198672686428	1.54083251953125	7.965087890625E-05
124.298672686176	1.54083251953125	8.038330078125E-05
124.398672685924	1.54083251953125	7.958984375E-05
124.498672685671	1.54083251953125	8.0230712890625E-05
124.598672685419	1.54083251953125	7.9620361328125E-05
124.698672685166	1.54083251953125	8.038330078125E-05
124.798672684914	1.54083251953125	7.965087890625E-05
124.898672684661	1.54083251953125	7.977294921875E-05
124.998672684409	1.54083251953125	7.9559326171875E-05
125.098672684156	1.54083251953125	8.026123046875E-05
125.198672683904	1.54083251953125	7.9681396484375E-05
125.298672683651	1.54083251953125	7.989501953125E-05
125.398672683399	1.54083251953125	8.02001953125E-05
125.498672683146	1.54083251953125	7.952880859375E-05
125.598672682894	1.54083251953125	8.0474853515625E-05
125.698672682641	1.54083251953125	7.97119140625E-05
125.798672682389	1.54083251953125	8.0352783203125E-05
125.898672682136	1.54083251953125	7.9559326171875E-05
125.998672681884	1.54083251953125	8.038330078125E-05
126.098672681631	1.54083251953125	7.9833984375E-05
126.198672681379	1.54083251953125	8.0047607421875E-05
126.298672681127	1.54083251953125	7.952880859375E-05
126.398672680874	1.54083251953125	8.0291748046875E-05
126.498672680622	1.54083251953125	7.97119140625E-05
126.598672680369	1.5411376953125	7.9803466796875E-05
126.698672680117	1.54083251953125	8.0352783203125E-05
126.798672679864	1.54083251953125	7.9498291015625E-05
126.898672679612	1.5411376953125	7.9925537109375E-05
126.998672679359	1.54083251953125	7.9742431640625E-05
127.098672679107	1.5411376953125	8.0291748046875E-05
127.198672678854	1.5411376953125	7.958984375E-05
127.298672678602	1.5411376953125	8.0230712890625E-05
127.398672678349	1.5411376953125	7.958984375E-05
127.498672678097	1.5411376953125	8.0352783203125E-05
127.598672677844	1.5411376953125	7.958984375E-05
127.698672677592	1.5411376953125	8.038330078125E-05
127.798672677339	1.5411376953125	7.965087890625E-05
127.898672677087	1.5411376953125	7.977294921875E-05
127.998672676834	1.5411376953125	7.9681396484375E-05
128.098672676582	1.5411376953125	8.0322265625E-05
128.198672676329	1.5411376953125	7.97119140625E-05
128.298672676077	1.5411376953125	7.9864501953125E-05
128.398672675825	1.5411376953125	8.0230712890625E-05
128.498672675572	1.5411376953125	7.9559326171875E-05
128.59867267532	1.5411376953125	8.0352783203125E-05
128.698672675067	1.5411376953125	7.9681396484375E-05
128.798672674815	1.5411376953125	8.0322265625E-05
128.898672674562	1.5411376953125	7.958984375E-05
128.99867267431	1.5411376953125	8.0322265625E-05
129.098672674057	1.5411376953125	8.0078125E-05
129.198672673805	1.5411376953125	8.04443359375E-05
129.298672673552	1.5411376953125	7.9559326171875E-05
129.3986726733	1.5411376953125	8.0352783203125E-05
129.498672673047	1.5411376953125	7.9620361328125E-05
129.598672672795	1.5411376953125	7.9833984375E-05
129.698672672542	1.5411376953125	8.0291748046875E-05
129.79867267229	1.5411376953125	8.0169677734375E-05
129.898672672037	1.5411376953125	7.9803466796875E-05
129.998672671785	1.5411376953125	7.9925537109375E-05
130.098672671532	1.5411376953125	8.0047607421875E-05
130.19867267128	1.5411376953125	7.965087890625E-05
130.298672671027	1.5411376953125	8.038330078125E-05
130.398672670775	1.5411376953125	7.9833984375E-05
130.498672670523	1.5411376953125	8.0108642578125E-05
130.59867267027	1.5411376953125	7.9681396484375E-05
130.698672670018	1.5411376953125	8.0291748046875E-05
130.798672669765	1.5411376953125	7.9559326171875E-05
130.898672669513	1.5411376953125	8.0078125E-05
130.99867266926	1.5411376953125	7.952880859375E-05
131.098672669008	1.5411376953125	8.038330078125E-05
131.198672668755	1.5411376953125	7.94677734375E-05
131.298672668503	1.5411376953125	8.0322265625E-05
131.39867266825	1.5411376953125	8.0047607421875E-05
131.498672667998	1.5411376953125	7.965087890625E-05
131.598672667745	1.5411376953125	7.9742431640625E-05
131.698672667493	1.5411376953125	8.038330078125E-05
131.79867266724	1.5411376953125	7.965087890625E-05
131.898672666988	1.5411376953125	8.0078125E-05
131.998672666735	1.5411376953125	8.0291748046875E-05
132.098672666483	1.5411376953125	7.9559326171875E-05
132.19867266623	1.5411376953125	8.0169677734375E-05
132.298672665978	1.5411376953125	7.9864501953125E-05
132.398672665725	1.5411376953125	8.0047607421875E-05
132.498672665473	1.5411376953125	7.965087890625E-05
132.598672665221	1.5411376953125	8.038330078125E-05
132.698672664968	1.5411376953125	7.977294921875E-05
132.798672664716	1.5411376953125	8.0352783203125E-05
132.898672664463	1.5411376953125	7.9620361328125E-05
132.998672664211	1.5411376953125	8.0291748046875E-05
133.098672663958	1.5411376953125	7.9559326171875E-05
133.198672663706	1.5411376953125	8.0047607421875E-05
133.298672663453	1.5411376953125	8.0169677734375E-05
133.398672663201	1.5411376953125	8.0474853515625E-05
133.498672662948	1.5411376953125	7.958984375E-05
133.598672662696	1.5411376953125	8.038330078125E-05
133.698672662443	1.5411376953125	7.958984375E-05
133.798672662191	1.5411376953125	7.97119140625E-05
133.898672661938	1.5411376953125	8.0322265625E-05
133.998672661686	1.5411376953125	8.0291748046875E-05
134.098672661433	1.5411376953125	7.97119140625E-05
134.198672661181	1.5411376953125	8.026123046875E-05
134.298672660928	1.5411376953125	7.9925537109375E-05
134.398672660676	1.5411376953125	7.9559326171875E-05
134.498672660423	1.5411376953125	8.0413818359375E-05
134.598672660171	1.5411376953125	8.038330078125E-05
134.698672659919	1.5411376953125	7.9986572265625E-05
134.798672659666	1.5411376953125	7.977294921875E-05
134.898672659414	1.5411376953125	8.0291748046875E-05
134.998672659161	1.5411376953125	7.9620361328125E-05
135.098672658909	1.5411376953125	8.0352783203125E-05
135.198672658656	1.54144287109375	8.02001953125E-05
135.298672658404	1.54144287109375	8.0047607421875E-05
135.398672658151	1.5411376953125	7.965087890625E-05
135.498672657899	1.54144287109375	8.038330078125E-05
135.598672657646	1.54144287109375	7.97119140625E-05
135.698672657394	1.5411376953125	7.9742431640625E-05
135.798672657141	1.54144287109375	7.965087890625E-05
135.898672656889	1.54144287109375	8.038330078125E-05
135.998672656636	1.54144287109375	7.9559326171875E-05
136.098672656384	1.54144287109375	8.0230712890625E-05
136.198672656131	1.54144287109375	8.0291748046875E-05
136.298672655879	1.54144287109375	7.9559326171875E-05
136.398672655626	1.54144287109375	7.9498291015625E-05
136.498672655374	1.54144287109375	8.013916015625E-05
136.598672655122	1.54144287109375	7.977294921875E-05
136.698672654869	1.54144287109375	7.9742431640625E-05
136.798672654617	1.54144287109375	8.038330078125E-05
136.898672654364	1.54144287109375	7.977294921875E-05
136.998672654112	1.54144287109375	7.965087890625E-05
137.098672653859	1.54144287109375	7.958984375E-05
137.198672653607	1.54144287109375	8.0322265625E-05
137.298672653354	1.54144287109375	7.9559326171875E-05
137.398672653102	1.54144287109375	7.9864501953125E-05
137.498672652849	1.54144287109375	8.026123046875E-05
137.598672652597	1.54144287109375	8.0322265625E-05
137.698672652344	1.54144287109375	7.9559326171875E-05
137.798672652092	1.54144287109375	8.0413818359375E-05
137.898672651839	1.54144287109375	7.958984375E-05
137.998672651587	1.54144287109375	8.013916015625E-05
138.098672651334	1.54144287109375	8.0352783203125E-05
138.198672651082	1.54144287109375	8.04443359375E-05
138.298672650829	1.54144287109375	7.9559326171875E-05
138.398672650577	1.54144287109375	8.0352783203125E-05
138.498672650324	1.54144287109375	7.9864501953125E-05
138.598672650072	1.54144287109375	7.97119140625E-05
138.69867264982	1.54144287109375	8.038330078125E-05
138.798672649567	1.54144287109375	8.0413818359375E-05
138.898672649315	1.54144287109375	7.9681396484375E-05
138.998672649062	1.54144287109375	8.001708984375E-05
139.09867264881	1.54144287109375	8.001708984375E-05
139.198672648557	1.54144287109375	7.9620361328125E-05
139.298672648305	1.54144287109375	8.0322265625E-05
139.398672648052	1.541748046875	8.04443359375E-05
139.4986726478	1.54144287109375	8.0230712890625E-05
139.598672647547	1.541748046875	7.9620361328125E-05
139.698672647295	1.54144287109375	8.0291748046875E-05
139.798672647042	1.541748046875	7.958984375E-05
139.89867264679	1.54144287109375	8.0322265625E-05
139.998672646537	1.54144287109375	7.9681396484375E-05
140.098672646285	1.541748046875	8.0413818359375E-05
140.198672646032	1.541748046875	7.958984375E-05
140.29867264578	1.54144287109375	8.0352783203125E-05
140.398672645527	1.541748046875	7.958984375E-05
140.498672645275	1.541748046875	8.026123046875E-05
140.598672645022	1.541748046875	7.9742431640625E-05
140.69867264477	1.541748046875	8.02001953125E-05
140.798672644518	1.541748046875	7.958984375E-05
140.898672644265	1.541748046875	8.0322265625E-05
140.998672644013	1.541748046875	7.9620361328125E-05
141.09867264376	1.541748046875	8.02001953125E-05
141.198672643508	1.541748046875	8.0078125E-05
141.298672643255	1.541748046875	8.038330078125E-05
141.398672643003	1.541748046875	7.9559326171875E-05
141.49867264275	1.541748046875	8.0352783203125E-05
141.598672642498	1.541748046875	7.958984375E-05
141.698672642245	1.541748046875	8.0108642578125E-05
141.798672641993	1.541748046875	7.99560546875E-05
141.89867264174	1.541748046875	8.038330078125E-05
141.998672641488	1.541748046875	7.9620361328125E-05
142.098672641235	1.541748046875	8.013916015625E-05
142.198672640983	1.541748046875	8.0230712890625E-05
142.29867264073	1.541748046875	7.958984375E-05
142.398672640478	1.541748046875	7.9620361328125E-05
142.498672640225	1.541748046875	7.989501953125E-05
142.598672639973	1.541748046875	8.026123046875E-05
142.69867263972	1.541748046875	7.9681396484375E-05
142.798672639468	1.541748046875	8.038330078125E-05
142.898672639216	1.541748046875	7.958984375E-05
142.998672638963	1.541748046875	7.9498291015625E-05
143.098672638711	1.541748046875	7.9559326171875E-05
143.198672638458	1.541748046875	8.038330078125E-05
143.298672638206	1.541748046875	7.958984375E-05
143.398672637953	1.541748046875	8.013916015625E-05
143.498672637701	1.541748046875	7.9681396484375E-05
143.598672637448	1.541748046875	7.9498291015625E-05
143.698672637196	1.541748046875	7.952880859375E-05
143.798672636943	1.541748046875	8.02001953125E-05
143.898672636691	1.541748046875	7.9833984375E-05
143.998672636438	1.541748046875	7.9986572265625E-05
144.098672636186	1.54205322265625	7.977294921875E-05
144.198672635933	1.54205322265625	7.965087890625E-05
144.298672635681	1.541748046875	7.9620361328125E-05
144.398672635428	1.54205322265625	8.0047607421875E-05
144.498672635176	1.54205322265625	7.99560546875E-05
144.598672634923	1.541748046875	7.9833984375E-05
144.698672634671	1.54205322265625	7.965087890625E-05
144.798672634418	1.54205322265625	7.9681396484375E-05
144.898672634166	1.54205322265625	7.9681396484375E-05
144.998672633914	1.54205322265625	7.97119140625E-05
145.098672633661	1.54205322265625	8.0413818359375E-05
145.198672633409	1.54205322265625	7.9620361328125E-05
145.298672633156	1.54205322265625	8.0322265625E-05
145.398672632904	1.54205322265625	8.02001953125E-05
145.498672632651	1.54205322265625	8.013916015625E-05
145.598672632399	1.54205322265625	7.9559326171875E-05
145.698672632146	1.54205322265625	8.038330078125E-05
145.798672631894	1.54205322265625	7.9620361328125E-05
145.898672631641	1.54205322265625	8.0413818359375E-05
145.998672631389	1.54205322265625	7.9925537109375E-05
146.098672631136	1.54205322265625	7.99560546875E-05
146.198672630884	1.54205322265625	7.952880859375E-05
146.298672630631	1.54205322265625	8.0230712890625E-05
146.398672630379	1.54205322265625	7.9803466796875E-05
146.498672630126	1.54205322265625	8.0413818359375E-05
146.598672629874	1.54205322265625	8.001708984375E-05
146.698672629621	1.54205322265625	8.026123046875E-05
146.798672629369	1.54205322265625	7.952880859375E-05
146.898672629117	1.54205322265625	7.9986572265625E-05
146.998672628864	1.54205322265625	8.0078125E-05
147.098672628612	1.54205322265625	8.04443359375E-05
147.198672628359	1.54205322265625	8.001708984375E-05
147.298672628107	1.54205322265625	8.0322265625E-05
147.398672627854	1.54205322265625	7.958984375E-05
147.498672627602	1.5423583984375	7.977294921875E-05
147.598672627349	1.54205322265625	8.0291748046875E-05
147.698672627097	1.5423583984375	8.0322265625E-05
147.798672626844	1.5423583984375	8.0291748046875E-05
147.898672626592	1.5423583984375	8.038330078125E-05
147.998672626339	1.5423583984375	7.99560546875E-05
148.098672626087	1.5423583984375	7.9559326171875E-05
148.198672625834	1.5423583984375	8.0413818359375E-05
148.298672625582	1.5423583984375	7.9681396484375E-05
148.398672625329	1.5423583984375	8.04443359375E-05
148.498672625077	1.5423583984375	8.013916015625E-05
148.598672624824	1.5423583984375	8.0322265625E-05
148.698672624572	1.5423583984375	7.9620361328125E-05
148.798672624319	1.5423583984375	7.9833984375E-05
148.898672624067	1.5423583984375	7.952880859375E-05
148.998672623815	1.5423583984375	7.9803466796875E-05
149.098672623562	1.5423583984375	7.9620361328125E-05
149.19867262331	1.5423583984375	8.038330078125E-05
149.298672623057	1.5423583984375	8.0230712890625E-05
149.398672622805	1.5423583984375	7.958984375E-05
149.498672622552	1.5423583984375	8.0169677734375E-05
149.5986726223	1.5423583984375	7.94677734375E-05
149.698672622047	1.5423583984375	7.952880859375E-05
149.798672621795	1.5423583984375	7.9833984375E-05
149.898672621542	1.5423583984375	8.0352783203125E-05
149.99867262129	1.5423583984375	7.958984375E-05
150.098672621037	1.5423583984375	8.038330078125E-05
150.198672620785	1.5423583984375	8.001708984375E-05
150.298672620532	1.5423583984375	7.989501953125E-05
150.39867262028	1.5423583984375	7.965087890625E-05
150.498672620027	1.5423583984375	8.038330078125E-05
150.598672619775	1.5423583984375	7.9803466796875E-05
150.698672619522	1.5423583984375	8.0352783203125E-05
150.79867261927	1.5423583984375	8.013916015625E-05
150.898672619017	1.5423583984375	8.0230712890625E-05
150.998672618765	1.5423583984375	7.952880859375E-05
151.098672618513	1.5423583984375	8.0108642578125E-05
151.19867261826	1.5423583984375	8.0352783203125E-05
151.298672618008	1.5423583984375	7.9681396484375E-05
151.398672617755	1.54266357421875	8.04443359375E-05
151.498672617503	1.5423583984375	8.038330078125E-05
151.59867261725	1.5423583984375	7.97119140625E-05
151.698672616998	1.5423583984375	7.9742431640625E-05
151.798672616745	1.5423583984375	8.038330078125E-05
151.898672616493	1.5423583984375	7.958984375E-05
151.99867261624	1.5423583984375	8.0108642578125E-05
152.098672615988	1.54266357421875	8.0230712890625E-05
152.198672615735	1.54266357421875	7.9742431640625E-05
152.298672615483	1.54266357421875	7.965087890625E-05
152.39867261523	1.54266357421875	8.0352783203125E-05
152.498672614978	1.54266357421875	7.9498291015625E-05
152.598672614725	1.54266357421875	7.9681396484375E-05
152.698672614473	1.54266357421875	7.9925537109375E-05
152.79867261422	1.54266357421875	8.02001953125E-05
152.898672613968	1.54266357421875	7.958984375E-05
152.998672613715	1.54266357421875	8.038330078125E-05
153.098672613463	1.54266357421875	7.952880859375E-05
153.198672613211	1.54266357421875	7.952880859375E-05
153.298672612958	1.54266357421875	7.9559326171875E-05
153.398672612706	1.54266357421875	8.0291748046875E-05
153.498672612453	1.54266357421875	7.952880859375E-05
153.598672612201	1.54266357421875	7.9864501953125E-05
153.698672611948	1.54266357421875	7.989501953125E-05
153.798672611696	1.54266357421875	7.952880859375E-05
153.898672611443	1.54266357421875	7.9559326171875E-05
153.998672611191	1.54266357421875	8.0291748046875E-05
154.098672610938	1.54266357421875	7.99560546875E-05
154.198672610686	1.54266357421875	7.9620361328125E-05
154.298672610433	1.54266357421875	8.0352783203125E-05
154.398672610181	1.54266357421875	7.9925537109375E-05
154.498672609928	1.54266357421875	7.9986572265625E-05
154.598672609676	1.54266357421875	7.9742431640625E-05
154.698672609423	1.54266357421875	8.0322265625E-05
154.798672609171	1.54296875	7.958984375E-05
154.898672608918	1.54266357421875	8.04443359375E-05
154.998672608666	1.54266357421875	8.038330078125E-05
155.098672608413	1.54296875	8.0352783203125E-05
155.198672608161	1.54266357421875	7.9559326171875E-05
155.298672607909	1.54266357421875	8.0352783203125E-05
155.398672607656	1.54296875	7.94677734375E-05
155.498672607404	1.54266357421875	8.04443359375E-05
155.598672607151	1.54296875	8.0413818359375E-05
155.698672606899	1.54296875	8.038330078125E-05
155.798672606646	1.54266357421875	7.9498291015625E-05
155.898672606394	1.54296875	8.038330078125E-05
155.998672606141	1.54296875	7.952880859375E-05
156.098672605889	1.54296875	8.0535888671875E-05
156.198672605636	1.54296875	8.04443359375E-05
156.298672605384	1.54296875	8.0474853515625E-05
156.398672605131	1.54296875	7.952880859375E-05
156.498672604879	1.54296875	8.0413818359375E-05
156.598672604626	1.54296875	7.958984375E-05
156.698672604374	1.54296875	8.0352783203125E-05
156.798672604121	1.54296875	8.038330078125E-05
156.898672603869	1.54296875	8.04443359375E-05
156.998672603616	1.54296875	7.9620361328125E-05
157.098672603364	1.54296875	8.0108642578125E-05
157.198672603112	1.54296875	7.99560546875E-05
157.298672602859	1.54296875	7.9925537109375E-05
157.398672602607	1.54296875	7.9803466796875E-05
157.498672602354	1.54296875	8.013916015625E-05
157.598672602102	1.54296875	8.02001953125E-05
157.698672601849	1.54296875	7.977294921875E-05
157.798672601597	1.54327392578125	8.026123046875E-05
157.898672601344	1.54327392578125	7.9742431640625E-05
157.998672601092	1.54327392578125	7.989501953125E-05
158.098672600839	1.54327392578125	8.001708984375E-05
158.198672600587	1.54327392578125	8.0322265625E-05
158.298672600334	1.54327392578125	7.9559326171875E-05
158.398672600082	1.54327392578125	8.04443359375E-05
158.498672599829	1.54327392578125	7.9498291015625E-05
158.598672599577	1.54327392578125	7.9742431640625E-05
158.698672599324	1.54327392578125	7.9681396484375E-05
158.798672599072	1.54327392578125	8.038330078125E-05
158.898672598819	1.54327392578125	7.9498291015625E-05
158.998672598567	1.54327392578125	8.0352783203125E-05
159.098672598314	1.54327392578125	7.9498291015625E-05
159.198672598062	1.54327392578125	7.94677734375E-05
159.29867259781	1.54327392578125	7.958984375E-05
159.398672597557	1.54327392578125	8.0322265625E-05
159.498672597305	1.54327392578125	8.0047607421875E-05
159.598672597052	1.54327392578125	7.9681396484375E-05
159.6986725968	1.54327392578125	7.965087890625E-05
159.798672596547	1.54327392578125	7.9437255859375E-05
159.898672596295	1.54327392578125	7.952880859375E-05
159.998672596042	1.54327392578125	7.9681396484375E-05
160.09867259579	1.54327392578125	8.038330078125E-05
160.198672595537	1.54327392578125	7.952880859375E-05
160.298672595285	1.54327392578125	8.0322265625E-05
160.398672595032	1.54327392578125	7.965087890625E-05
160.49867259478	1.54327392578125	7.9742431640625E-05
160.598672594527	1.54327392578125	7.958984375E-05
160.698672594275	1.54327392578125	8.0352783203125E-05
160.798672594022	1.54327392578125	7.958984375E-05
160.89867259377	1.54327392578125	8.0413818359375E-05
160.998672593517	1.54327392578125	7.965087890625E-05
161.098672593265	1.54327392578125	7.9803466796875E-05
161.198672593012	1.54327392578125	7.9559326171875E-05
161.29867259276	1.54327392578125	8.0169677734375E-05
161.398672592508	1.54327392578125	8.0078125E-05
161.498672592255	1.54327392578125	8.0413818359375E-05
161.598672592003	1.54327392578125	8.0078125E-05
161.69867259175	1.54327392578125	8.038330078125E-05
161.798672591498	1.54327392578125	7.97119140625E-05
161.898672591245	1.54327392578125	7.965087890625E-05
161.998672590993	1.54327392578125	8.0322265625E-05
162.09867259074	1.54327392578125	8.02001953125E-05
162.198672590488	1.54327392578125	8.0413818359375E-05
162.298672590235	1.54327392578125	8.026123046875E-05
162.398672589983	1.54327392578125	8.026123046875E-05
162.49867258973	1.54327392578125	7.9620361328125E-05
162.598672589478	1.54327392578125	8.0169677734375E-05
162.698672589225	1.54327392578125	7.9620361328125E-05
162.798672588973	1.54327392578125	8.0352783203125E-05
162.89867258872	1.54327392578125	7.9833984375E-05
162.998672588468	1.54327392578125	8.0291748046875E-05
163.098672588215	1.54327392578125	7.97119140625E-05
163.198672587963	1.54327392578125	7.97119140625E-05
163.29867258771	1.54327392578125	7.9498291015625E-05
163.398672587458	1.54327392578125	7.9803466796875E-05
163.498672587206	1.54327392578125	7.958984375E-05
163.598672586953	1.54327392578125	8.0291748046875E-05
