Time (s)	WE(1).Potential (V)
164.6097505844	1.32568359375
165.609750581876	1.29241943359375
166.609750579351	1.27471923828125
167.609750576826	1.2628173828125
168.609750574301	1.2542724609375
169.609750571777	1.24725341796875
170.609750569252	1.241455078125
171.609750566727	1.23626708984375
172.609750564202	1.23138427734375
173.609750561678	1.22711181640625
174.609750559153	1.22344970703125
175.609750556628	1.21978759765625
176.609750554103	1.2164306640625
177.609750551578	1.21307373046875
178.609750549054	1.21002197265625
179.609750546529	1.207275390625
180.609750544004	1.2042236328125
181.609750541479	1.2017822265625
182.609750538955	1.1993408203125
183.60975053643	1.1968994140625
184.609750533905	1.1944580078125
185.60975053138	1.19232177734375
186.609750528856	1.190185546875
187.609750526331	1.18804931640625
188.609750523806	1.1859130859375
189.609750521281	1.18408203125
190.609750518757	1.1822509765625
191.609750516232	1.180419921875
192.609750513707	1.17889404296875
193.609750511182	1.17706298828125
194.609750508658	1.175537109375
195.609750506133	1.17401123046875
196.609750503608	1.1724853515625
197.609750501083	1.17095947265625
198.609750498559	1.16973876953125
199.609750496034	1.168212890625
200.609750493509	1.1669921875
201.609750490984	1.165771484375
202.60975048846	1.16455078125
203.609750485935	1.163330078125
204.60975048341	1.162109375
205.609750480885	1.160888671875
206.609750478361	1.15966796875
207.609750475836	1.15875244140625
208.609750473311	1.15753173828125
209.609750470786	1.1566162109375
210.609750468262	1.15570068359375
211.609750465737	1.15478515625
212.609750463212	1.15386962890625
213.609750460687	1.15264892578125
214.609750458162	1.1517333984375
215.609750455638	1.151123046875
216.609750453113	1.15020751953125
217.609750450588	1.1492919921875
218.609750448063	1.148681640625
219.609750445539	1.14776611328125
220.609750443014	1.14715576171875
221.609750440489	1.146240234375
222.609750437964	1.1456298828125
223.60975043544	1.14501953125
224.609750432915	1.1444091796875
225.60975043039	1.143798828125
226.609750427865	1.1431884765625
227.609750425341	1.14227294921875
228.609750422816	1.14166259765625
229.609750420291	1.14105224609375
230.609750417766	1.14044189453125
231.609750415242	1.13983154296875
232.609750412717	1.1395263671875
233.609750410192	1.138916015625
234.609750407667	1.1383056640625
235.609750405143	1.1376953125
236.609750402618	1.1370849609375
237.609750400093	1.13677978515625
238.609750397568	1.13616943359375
239.609750395044	1.13555908203125
240.609750392519	1.13525390625
241.609750389994	1.1346435546875
242.609750387469	1.134033203125
243.609750384945	1.13372802734375
244.60975038242	1.13311767578125
245.609750379895	1.1328125
246.60975037737	1.1322021484375
247.609750374845	1.13189697265625
248.609750372321	1.13128662109375
249.609750369796	1.1309814453125
250.609750367271	1.13037109375
251.609750364746	1.13006591796875
252.609750362222	1.1297607421875
253.609750359697	1.129150390625
254.609750357172	1.12884521484375
255.609750354647	1.1285400390625
256.609750352123	1.1279296875
257.609750349598	1.12762451171875
258.609750347073	1.1273193359375
259.609750344548	1.126708984375
260.609750342024	1.12640380859375
261.609750339499	1.1260986328125
262.609750336974	1.12579345703125
263.609750334449	1.12518310546875
264.609750331925	1.1248779296875
265.6097503294	1.12457275390625
266.609750326875	1.124267578125
267.60975032435	1.12396240234375
268.609750321826	1.12335205078125
269.609750319301	1.123046875
270.609750316776	1.12274169921875
271.609750314251	1.1224365234375
272.609750311727	1.12213134765625
273.609750309202	1.121826171875
274.609750306677	1.12152099609375
275.609750304152	1.1212158203125
276.609750301628	1.12091064453125
277.609750299103	1.12060546875
278.609750296578	1.12030029296875
279.609750294053	1.1199951171875
280.609750291528	1.11968994140625
281.609750289004	1.119384765625
282.609750286479	1.11907958984375
283.609750283954	1.1187744140625
284.609750281429	1.11846923828125
285.609750278905	1.1181640625
286.60975027638	1.11785888671875
287.609750273855	1.1175537109375
288.60975027133	1.11724853515625
289.609750268806	1.116943359375
290.609750266281	1.11663818359375
291.609750263756	1.1163330078125
292.609750261231	1.1163330078125
293.609750258707	1.11602783203125
294.609750256182	1.11572265625
295.609750253657	1.11572265625
296.609750251132	1.11541748046875
297.609750248608	1.1151123046875
298.609750246083	1.1151123046875
299.609750243558	1.11480712890625
300.609750241033	1.114501953125
301.609750238509	1.114501953125
302.609750235984	1.11419677734375
303.609750233459	1.1138916015625
304.609750230934	1.1138916015625
305.60975022841	1.11358642578125
306.609750225885	1.11328125
307.60975022336	1.11328125
308.609750220835	1.11297607421875
309.609750218311	1.11297607421875
310.609750215786	1.1126708984375
311.609750213261	1.11236572265625
312.609750210736	1.11236572265625
313.609750208211	1.112060546875
314.609750205687	1.112060546875
315.609750203162	1.11175537109375
316.609750200637	1.11175537109375
317.609750198112	1.1114501953125
318.609750195588	1.11114501953125
319.609750193063	1.11114501953125
320.609750190538	1.11083984375
321.609750188013	1.11083984375
322.609750185489	1.11053466796875
323.609750182964	1.1102294921875
324.609750180439	1.1102294921875
325.609750177914	1.10992431640625
326.60975017539	1.10992431640625
327.609750172865	1.109619140625
328.60975017034	1.10931396484375
329.609750167815	1.10931396484375
330.609750165291	1.1090087890625
331.609750162766	1.10870361328125
332.609750160241	1.10870361328125
333.609750157716	1.1083984375
334.609750155192	1.10809326171875
335.609750152667	1.10809326171875
336.609750150142	1.1077880859375
337.609750147617	1.1077880859375
338.609750145093	1.10748291015625
339.609750142568	1.107177734375
340.609750140043	1.107177734375
341.609750137518	1.10687255859375
342.609750134994	1.10687255859375
343.609750132469	1.1065673828125
344.609750129944	1.1065673828125
345.609750127419	1.10626220703125
346.609750124895	1.10626220703125
347.60975012237	1.10595703125
348.609750119845	1.10565185546875
349.60975011732	1.10565185546875
350.609750114795	1.1053466796875
351.609750112271	1.1053466796875
352.609750109746	1.10504150390625
353.609750107221	1.10504150390625
354.609750104696	1.104736328125
355.609750102172	1.104736328125
356.609750099647	1.10443115234375
357.609750097122	1.10443115234375
358.609750094597	1.1041259765625
359.609750092073	1.1041259765625
360.609750089548	1.10382080078125
361.609750087023	1.10382080078125
362.609750084498	1.103515625
363.609750081974	1.103515625
364.609750079449	1.103515625
365.609750076924	1.10321044921875
366.609750074399	1.10321044921875
367.609750071875	1.1029052734375
368.60975006935	1.1029052734375
369.609750066825	1.10260009765625
370.6097500643	1.10260009765625
371.609750061776	1.102294921875
372.609750059251	1.102294921875
373.609750056726	1.10198974609375
374.609750054201	1.10198974609375
375.609750051677	1.10198974609375
376.609750049152	1.1016845703125
377.609750046627	1.1016845703125
378.609750044102	1.10137939453125
379.609750041578	1.10137939453125
380.609750039053	1.10137939453125
381.609750036528	1.10107421875
382.609750034003	1.10107421875
383.609750031478	1.10107421875
384.609750028954	1.10076904296875
385.609750026429	1.10076904296875
386.609750023904	1.10076904296875
387.609750021379	1.1004638671875
388.609750018855	1.1004638671875
389.60975001633	1.1004638671875
390.609750013805	1.10015869140625
391.60975001128	1.10015869140625
392.609750008756	1.10015869140625
393.609750006231	1.10015869140625
394.609750003706	1.099853515625
395.609750001181	1.099853515625
396.609749998657	1.099853515625
397.609749996132	1.09954833984375
398.609749993607	1.09954833984375
399.609749991082	1.09954833984375
400.609749988558	1.09954833984375
401.609749986033	1.0992431640625
402.609749983508	1.0992431640625
403.609749980983	1.0992431640625
404.609749978459	1.09893798828125
405.609749975934	1.09893798828125
406.609749973409	1.09893798828125
407.609749970884	1.0986328125
408.60974996836	1.0986328125
409.609749965835	1.0986328125
410.60974996331	1.0986328125
411.609749960785	1.09832763671875
412.609749958261	1.09832763671875
413.609749955736	1.09832763671875
414.609749953211	1.0980224609375
415.609749950686	1.0980224609375
416.609749948161	1.0980224609375
417.609749945637	1.09771728515625
418.609749943112	1.09771728515625
419.609749940587	1.09771728515625
420.609749938062	1.097412109375
421.609749935538	1.097412109375
422.609749933013	1.097412109375
423.609749930488	1.09710693359375
424.609749927963	1.09710693359375
425.609749925439	1.0968017578125
426.609749922914	1.0968017578125
427.609749920389	1.0968017578125
428.609749917864	1.09649658203125
429.60974991534	1.09649658203125
430.609749912815	1.09649658203125
431.60974991029	1.09619140625
432.609749907765	1.09619140625
433.609749905241	1.09619140625
434.609749902716	1.09588623046875
435.609749900191	1.09588623046875
436.609749897666	1.09588623046875
437.609749895142	1.0955810546875
438.609749892617	1.0955810546875
439.609749890092	1.0955810546875
440.609749887567	1.09527587890625
441.609749885043	1.09527587890625
442.609749882518	1.09527587890625
443.609749879993	1.094970703125
444.609749877468	1.094970703125
445.609749874944	1.094970703125
446.609749872419	1.094970703125
447.609749869894	1.09466552734375
448.609749867369	1.09466552734375
449.609749864845	1.09466552734375
450.60974986232	1.0943603515625
451.609749859795	1.0943603515625
452.60974985727	1.0943603515625
453.609749854745	1.0943603515625
454.609749852221	1.09405517578125
455.609749849696	1.09405517578125
456.609749847171	1.09405517578125
457.609749844646	1.09405517578125
458.609749842122	1.09375
459.609749839597	1.09375
460.609749837072	1.09375
461.609749834547	1.09375
462.609749832023	1.09344482421875
463.609749829498	1.09344482421875
