Time (s)	WE(1).Potential (V)	External(1).External 2 (V)
2898.2200366827	0.0570068359375	2.801513671875
2899.22003668017	0.0484405517578125	2.82012939453125
2900.22003667765	0.042242431640625	2.801513671875
2901.22003667512	0.0372528076171875	2.82073974609375
2902.2200366726	0.0330474853515625	2.8009033203125
2903.22003667007	0.0293792724609375	2.781982421875
2904.22003666755	0.0261383056640625	2.801513671875
2905.22003666502	0.023223876953125	2.8204345703125
2906.2200366625	0.0205780029296875	2.801513671875
2907.22003665997	0.0181610107421875	2.8204345703125
2908.22003665745	0.0159332275390625	2.80120849609375
2909.22003665493	0.0138702392578125	2.8192138671875
2910.2200366524	0.011981201171875	2.8009033203125
2911.22003664988	0.0101959228515625	2.80120849609375
2912.22003664735	0.00853576660156249	2.8204345703125
2913.22003664483	0.0069610595703125	2.801513671875
2914.2200366423	0.0054931640625	2.80029296875
2915.22003663978	0.004107666015625	2.80120849609375
2916.22003663725	0.00278320312499999	2.80029296875
2917.22003663473	0.001556396484375	2.80029296875
2918.2200366322	0.000387573242187494	2.80120849609375
2919.22003662968	-0.000726318359375006	2.781982421875
2920.22003662715	-0.001788330078125	2.80120849609375
2921.22003662463	-0.0027923583984375	2.80120849609375
2922.2200366221	-0.0037384033203125	2.80120849609375
2923.22003661958	-0.00464782714843751	2.78167724609375
2924.22003661705	-0.0055206298828125	2.79998779296875
2925.22003661453	-0.006365966796875	2.781982421875
2926.220036612	-0.0071685791015625	2.80181884765625
2927.22003660948	-0.0079345703125	2.801513671875
2928.22003660696	-0.00866088867187501	2.80120849609375
2929.22003660443	-0.00936279296875001	2.80120849609375
2930.22003660191	-0.0100555419921875	2.80059814453125
2931.22003659938	-0.010687255859375	2.801513671875
2932.22003659686	-0.011297607421875	2.801513671875
2933.22003659433	-0.0118865966796875	2.801513671875
2934.22003659181	-0.0124603271484375	2.801513671875
2935.22003658928	-0.013006591796875	2.78106689453125
2936.22003658676	-0.0135223388671875	2.801513671875
2937.22003658423	-0.0140472412109375	2.78228759765625
2938.22003658171	-0.0145172119140625	2.78228759765625
2939.22003657918	-0.014971923828125	2.80120849609375
2940.22003657666	-0.0154266357421875	2.80120849609375
2941.22003657413	-0.0158660888671875	2.781982421875
2942.22003657161	-0.0162841796875	2.8009033203125
2943.22003656908	-0.0166839599609375	2.78167724609375
2944.22003656656	-0.0170806884765625	2.80059814453125
2945.22003656403	-0.0174285888671875	2.80181884765625
2946.22003656151	-0.017791748046875	2.80059814453125
2947.22003655898	-0.0181304931640625	2.80059814453125
2948.22003655646	-0.018475341796875	2.7813720703125
2949.22003655394	-0.0187835693359375	2.801513671875
2950.22003655141	-0.01910400390625	2.781982421875
2951.22003654889	-0.019403076171875	2.78167724609375
2952.22003654636	-0.0197052001953125	2.80120849609375
2953.22003654384	-0.01998291015625	2.78167724609375
2954.22003654131	-0.0202545166015625	2.7813720703125
2955.22003653879	-0.020526123046875	2.78167724609375
2956.22003653626	-0.020782470703125	2.78106689453125
2957.22003653374	-0.021026611328125	2.78167724609375
2958.22003653121	-0.0212615966796875	2.801513671875
2959.22003652869	-0.021478271484375	2.78167724609375
2960.22003652616	-0.0217071533203125	2.7813720703125
2961.22003652364	-0.021917724609375	2.762451171875
2962.22003652111	-0.0221160888671875	2.78167724609375
2963.22003651859	-0.0223114013671875	2.7813720703125
2964.22003651606	-0.0225006103515625	2.78167724609375
2965.22003651354	-0.022686767578125	2.78167724609375
2966.22003651101	-0.02286376953125	2.781982421875
2967.22003650849	-0.0230316162109375	2.78106689453125
2968.22003650596	-0.0231903076171875	2.781982421875
2969.22003650344	-0.0233367919921875	2.7813720703125
2970.22003650092	-0.023480224609375	2.78289794921875
2971.22003649839	-0.0236236572265625	2.78167724609375
2972.22003649587	-0.0237640380859375	2.80029296875
2973.22003649334	-0.0238922119140625	2.801513671875
2974.22003649082	-0.02401123046875	2.78167724609375
2975.22003648829	-0.024139404296875	2.80120849609375
2976.22003648577	-0.024249267578125	2.78106689453125
2977.22003648324	-0.0243621826171875	2.78076171875
2978.22003648072	-0.0244720458984375	2.78167724609375
2979.22003647819	-0.0245819091796875	2.79998779296875
2980.22003647567	-0.0246978759765625	2.80120849609375
2981.22003647314	-0.0247894287109375	2.781982421875
2982.22003647062	-0.024896240234375	2.78167724609375
2983.22003646809	-0.0249755859375	2.78228759765625
2984.22003646557	-0.0250701904296875	2.78167724609375
2985.22003646304	-0.0251495361328125	2.781982421875
2986.22003646052	-0.0252227783203125	2.7813720703125
2987.22003645799	-0.02530517578125	2.78228759765625
2988.22003645547	-0.02537841796875	2.78106689453125
2989.22003645294	-0.0254486083984375	2.76214599609375
2990.22003645042	-0.02550048828125	2.78228759765625
2991.2200364479	-0.025567626953125	2.7618408203125
2992.22003644537	-0.0256317138671875	2.78228759765625
2993.22003644285	-0.0256805419921875	2.78076171875
2994.22003644032	-0.025732421875	2.76275634765625
2995.2200364378	-0.0257843017578125	2.79998779296875
2996.22003643527	-0.0258270263671875	2.801513671875
2997.22003643275	-0.025872802734375	2.781982421875
2998.22003643022	-0.0259185791015625	2.781982421875
2999.2200364277	-0.0259490966796875	2.78167724609375
3000.22003642517	-0.0259796142578125	2.78167724609375
3001.22003642265	-0.026019287109375	2.7813720703125
3002.22003642012	-0.0260467529296875	2.78106689453125
3003.2200364176	-0.0260711669921875	2.80120849609375
3004.22003641507	-0.026092529296875	2.78167724609375
3005.22003641255	-0.0261260986328125	2.7813720703125
3006.22003641002	-0.026141357421875	2.76153564453125
3007.2200364075	-0.026165771484375	2.80120849609375
3008.22003640497	-0.0261810302734375	2.78228759765625
3009.22003640245	-0.0261871337890625	2.78106689453125
3010.22003639992	-0.0262115478515625	2.78167724609375
3011.2200363974	-0.026214599609375	2.78045654296875
3012.22003639488	-0.0262237548828125	2.781982421875
3013.22003639235	-0.0262176513671875	2.8009033203125
3014.22003638983	-0.026226806640625	2.7825927734375
3015.2200363873	-0.0262298583984375	2.80181884765625
3016.22003638478	-0.026226806640625	2.781982421875
3017.22003638225	-0.0262237548828125	2.762451171875
3018.22003637973	-0.0262176513671875	2.7813720703125
3019.2200363772	-0.0262237548828125	2.80029296875
3020.22003637468	-0.026214599609375	2.80059814453125
3021.22003637215	-0.026220703125	2.80120849609375
3022.22003636963	-0.0262115478515625	2.80029296875
3023.2200363671	-0.0261993408203125	2.78167724609375
3024.22003636458	-0.0261993408203125	2.78167724609375
3025.22003636205	-0.0261993408203125	2.78167724609375
3026.22003635953	-0.026177978515625	2.78167724609375
3027.220036357	-0.02615966796875	2.78228759765625
3028.22003635448	-0.0261383056640625	2.78228759765625
3029.22003635195	-0.0261260986328125	2.78228759765625
3030.22003634943	-0.0261016845703125	2.78076171875
3031.22003634691	-0.0260894775390625	2.8009033203125
3032.22003634438	-0.026068115234375	2.80120849609375
3033.22003634186	-0.0260406494140625	2.801513671875
3034.22003633933	-0.026019287109375	2.80120849609375
3035.22003633681	-0.0259979248046875	2.78167724609375
3036.22003633428	-0.0259765625	2.7813720703125
3037.22003633176	-0.0259521484375	2.7813720703125
3038.22003632923	-0.0259307861328125	2.8009033203125
3039.22003632671	-0.0259033203125	2.78167724609375
3040.22003632418	-0.0258880615234375	2.78167724609375
3041.22003632166	-0.0258392333984375	2.78167724609375
3042.22003631913	-0.02581787109375	2.7813720703125
3043.22003631661	-0.02578125	2.781982421875
3044.22003631408	-0.0257598876953125	2.781982421875
3045.22003631156	-0.02572021484375	2.78076171875
3046.22003630903	-0.0256866455078125	2.78167724609375
3047.22003630651	-0.0256439208984375	2.7813720703125
3048.22003630398	-0.0256103515625	2.80029296875
3049.22003630146	-0.02557373046875	2.78076171875
3050.22003629893	-0.025531005859375	2.79876708984375
3051.22003629641	-0.0254791259765625	2.781982421875
3052.22003629389	-0.0254425048828125	2.80120849609375
3053.22003629136	-0.0254058837890625	2.76214599609375
3054.22003628884	-0.025360107421875	2.78167724609375
3055.22003628631	-0.02532958984375	2.781982421875
3056.22003628379	-0.025274658203125	2.8009033203125
3057.22003628126	-0.0252197265625	2.78106689453125
3058.22003627874	-0.0251739501953125	2.78167724609375
3059.22003627621	-0.0251312255859375	2.801513671875
3060.22003627369	-0.02508544921875	2.80059814453125
3061.22003627116	-0.0250335693359375	2.781982421875
3062.22003626864	-0.0250030517578125	2.78167724609375
3063.22003626611	-0.0249420166015625	2.78167724609375
3064.22003626359	-0.024884033203125	2.78106689453125
3065.22003626106	-0.0248321533203125	2.7813720703125
3066.22003625854	-0.0247894287109375	2.781982421875
3067.22003625601	-0.0247314453125	2.801513671875
3068.22003625349	-0.024676513671875	2.781982421875
3069.22003625096	-0.02462158203125	2.781982421875
3070.22003624844	-0.02457275390625	2.78106689453125
3071.22003624591	-0.0245269775390625	2.78167724609375
3072.22003624339	-0.024462890625	2.8009033203125
3073.22003624087	-0.0244140625	2.801513671875
3074.22003623834	-0.02435302734375	2.78228759765625
3075.22003623582	-0.0242919921875	2.8009033203125
3076.22003623329	-0.0242279052734375	2.78106689453125
3077.22003623077	-0.0241851806640625	2.80120849609375
