Time (s)	WE(1).Potential (V)	External(1).External 2 (V)
303.493514233753	0.109161376953125	3.1146240234375
304.493514231228	0.109222412109375	3.1146240234375
305.493514228703	0.1092529296875	3.11492919921875
306.493514226178	0.109283447265625	3.1341552734375
307.493514223654	0.109344482421875	3.1146240234375
308.493514221129	0.109375	3.1341552734375
309.493514218604	0.109405517578125	3.11553955078125
310.493514216079	0.10943603515625	3.1146240234375
311.493514213554	0.1094970703125	3.11431884765625
312.49351421103	0.109527587890625	3.11492919921875
313.493514208505	0.10955810546875	3.13446044921875
314.49351420598	0.109588623046875	3.11492919921875
315.493514203455	0.109619140625	3.11492919921875
316.493514200931	0.109649658203125	3.11492919921875
317.493514198406	0.109710693359375	3.114013671875
318.493514195881	0.1097412109375	3.11492919921875
319.493514193356	0.109771728515625	3.115234375
320.493514190832	0.109832763671875	3.13323974609375
321.493514188307	0.10986328125	3.0950927734375
322.493514185782	0.109893798828125	3.13385009765625
323.493514183257	0.10992431640625	3.11431884765625
324.493514180733	0.109954833984375	3.11431884765625
325.493514178208	0.110015869140625	3.1146240234375
326.493514175683	0.11004638671875	3.0950927734375
327.493514173158	0.110107421875	3.114013671875
328.493514170634	0.11016845703125	3.1146240234375
329.493514168109	0.110198974609375	3.09539794921875
330.493514165584	0.1102294921875	3.115234375
331.493514163059	0.11029052734375	3.11431884765625
332.493514160535	0.110321044921875	3.1146240234375
333.49351415801	0.1103515625	3.11431884765625
334.493514155485	0.110382080078125	3.114013671875
335.49351415296	0.110443115234375	3.1146240234375
336.493514150436	0.1104736328125	3.1146240234375
337.493514147911	0.11053466796875	3.115234375
338.493514145386	0.110565185546875	3.13446044921875
339.493514142861	0.110595703125	0.050140380859375
340.493514140337	0.11065673828125	0.050048828125
341.493514137812	0.110687255859375	0.050140380859375
342.493514135287	0.110748291015625	0.049896240234375
343.493514132762	0.110748291015625	0.050079345703125
344.493514130237	0.110809326171875	0.04998779296875
345.493514127713	0.11083984375	0.050048828125
346.493514125188	0.110870361328125	0.0498046875
347.493514122663	0.11090087890625	0.050048828125
348.493514120138	0.110931396484375	0.05010986328125
349.493514117614	0.110992431640625	0.049957275390625
350.493514115089	0.11102294921875	2.52227783203125
351.493514112564	0.111083984375	3.1341552734375
352.493514110039	0.111114501953125	3.11431884765625
353.493514107515	0.11114501953125	3.114013671875
354.49351410499	0.111175537109375	3.09417724609375
355.493514102465	0.1112060546875	3.11431884765625
356.49351409994	0.11126708984375	3.114013671875
357.493514097416	0.111328125	3.09539794921875
358.493514094891	0.111328125	3.09600830078125
359.493514092366	0.11138916015625	3.11370849609375
360.493514089841	0.111419677734375	3.1146240234375
361.493514087317	0.111419677734375	3.094482421875
362.493514084792	0.111480712890625	3.094482421875
363.493514082267	0.11151123046875	3.0950927734375
364.493514079742	0.111541748046875	3.09417724609375
365.493514077218	0.111572265625	3.09478759765625
366.493514074693	0.11163330078125	3.1146240234375
367.493514072168	0.111663818359375	3.09478759765625
368.493514069643	0.1116943359375	3.09539794921875
369.493514067119	0.111724853515625	3.094482421875
370.493514064594	0.111785888671875	3.11431884765625
371.493514062069	0.11181640625	3.133544921875
372.493514059544	0.111846923828125	3.11492919921875
373.49351405702	0.11187744140625	3.094482421875
374.493514054495	0.1119384765625	3.115234375
375.49351405197	0.111968994140625	3.1146240234375
376.493514049445	0.11199951171875	3.11370849609375
377.49351404692	0.112030029296875	3.095703125
378.493514044396	0.112060546875	3.1329345703125
379.493514041871	0.112091064453125	3.114013671875
380.493514039346	0.112152099609375	3.11431884765625
381.493514036821	0.1121826171875	3.09539794921875
382.493514034297	0.112213134765625	3.13385009765625
383.493514031772	0.11224365234375	3.11431884765625
384.493514029247	0.112274169921875	3.11431884765625
385.493514026722	0.1123046875	3.11370849609375
386.493514024198	0.11236572265625	3.11431884765625
387.493514021673	0.112396240234375	3.114013671875
388.493514019148	0.112457275390625	3.11492919921875
389.493514016623	0.112457275390625	3.114013671875
390.493514014099	0.11248779296875	3.094482421875
391.493514011574	0.112518310546875	3.114013671875
392.493514009049	0.112579345703125	3.1146240234375
393.493514006524	0.11260986328125	3.114013671875
394.493514004	0.112640380859375	3.09478759765625
395.493514001475	0.1126708984375	3.094482421875
396.49351399895	0.112701416015625	3.09478759765625
397.493513996425	0.11273193359375	3.1146240234375
398.493513993901	0.11273193359375	3.1134033203125
399.493513991376	0.11279296875	3.114013671875
400.493513988851	0.112823486328125	3.11309814453125
401.493513986326	0.11285400390625	3.094482421875
402.493513983802	0.112884521484375	3.114013671875
403.493513981277	0.1129150390625	3.11370849609375
404.493513978752	0.11297607421875	3.095703125
405.493513976227	0.113006591796875	3.114013671875
406.493513973703	0.113006591796875	3.09478759765625
407.493513971178	0.113067626953125	3.11431884765625
408.493513968653	0.113067626953125	3.11370849609375
409.493513966128	0.113128662109375	3.0755615234375
410.493513963604	0.113128662109375	3.09478759765625
411.493513961079	0.113189697265625	3.095703125
412.493513958554	0.113189697265625	3.1134033203125
413.493513956029	0.11322021484375	3.09478759765625
414.493513953504	0.113250732421875	3.114013671875
415.49351395098	0.113311767578125	3.11492919921875
416.493513948455	0.11334228515625	3.09417724609375
417.49351394593	0.1134033203125	3.1134033203125
418.493513943405	0.1134033203125	3.09417724609375
419.493513940881	0.11346435546875	3.09478759765625
420.493513938356	0.113494873046875	3.094482421875
421.493513935831	0.113525390625	3.094482421875
422.493513933306	0.11358642578125	3.09539794921875
