Time (s)	WE(1).Potential (V)	External(1).External 2 (V)
3.08375999221425	-0.440673828125	3.38836669921875
4.0837599896895	-0.45379638671875	3.387451171875
5.08375998716474	-0.4669189453125	3.34930419921875
6.08375998463998	-0.4693603515625	3.36822509765625
7.08375998211523	-0.467529296875	3.36761474609375
8.08375997959047	-0.4437255859375	3.38836669921875
9.08375997706571	-0.46875	3.369140625
10.083759974541	-0.467529296875	3.36944580078125
11.0837599720162	-0.472412109375	3.36822509765625
12.0837599694914	-0.46478271484375	3.3685302734375
13.0837599669667	-0.46783447265625	3.367919921875
14.0837599644419	-0.45562744140625	3.36822509765625
15.0837599619172	-0.11773681640625	3.388671875
16.0837599593924	-0.37750244140625	3.367919921875
17.0837599568677	-0.3656005859375	3.349609375
18.0837599543429	-0.41351318359375	3.36822509765625
19.0837599518181	-0.4229736328125	3.36822509765625
20.0837599492934	-0.4278564453125	3.36883544921875
21.0837599467686	-0.41900634765625	3.3697509765625
22.0837599442439	-0.43548583984375	3.369140625
23.0837599417191	-0.44464111328125	3.349609375
24.0837599391944	-0.42694091796875	3.369140625
25.0837599366696	-0.4193115234375	3.34930419921875
26.0837599341448	-0.34423828125	3.38836669921875
27.0837599316201	-0.35552978515625	3.3880615234375
28.0837599290953	-0.40191650390625	3.3892822265625
29.0837599265706	-0.48492431640625	3.3880615234375
30.0837599240458	-0.482177734375	3.38714599609375
31.0837599215211	-0.306976318359375	3.36883544921875
32.0837599189963	-0.37384033203125	3.367919921875
33.0837599164715	-0.44342041015625	3.369140625
34.0837599139468	-0.46142578125	3.367919921875
35.083759911422	-0.269012451171875	3.34808349609375
36.0837599088973	1.2451171875	3.387451171875
37.0837599063725	1.04949951171875	3.3673095703125
38.0837599038477	-1.08642578125	3.36883544921875
39.083759901323	-0.806884765625	3.387451171875
40.0837598987982	-0.672607421875	3.34930419921875
41.0837598962735	-0.6378173828125	3.3892822265625
42.0837598937487	-0.62713623046875	3.348388671875
43.083759891224	-0.6793212890625	3.367919921875
44.0837598886992	-0.6072998046875	3.38836669921875
45.0837598861744	-0.604248046875	3.3880615234375
46.0837598836497	-0.5963134765625	3.36883544921875
47.0837598811249	-0.57769775390625	3.3685302734375
48.0837598786002	-0.5352783203125	3.3697509765625
49.0837598760754	-0.5523681640625	3.36944580078125
50.0837598735507	-0.509033203125	3.38836669921875
51.0837598710259	-0.53466796875	3.34991455078125
52.0837598685011	-0.52032470703125	3.34930419921875
53.0837598659764	0.46295166015625	3.387451171875
54.0837598634516	3.39813232421875	3.36822509765625
55.0837598609269	3.973388671875	3.3685302734375
56.0837598584021	1.6009521484375	3.34869384765625
57.0837598558774	2.38006591796875	3.348388671875
58.0837598533526	1.87652587890625	3.34869384765625
59.0837598508278	1.66229248046875	2.28912353515625
60.0837598483031	1.688232421875	3.07586669921875
61.0837598457783	1.52435302734375	3.074951171875
62.0837598432536	1.9000244140625	3.09539794921875
63.0837598407288	2.960205078125	3.094482421875
64.0837598382041	3.077392578125	3.1134033203125
65.0837598356793	2.84637451171875	3.21197509765625
66.0837598331545	3.9996337890625	3.0560302734375
67.0837598306298	4.700927734375	3.055419921875
68.083759828105	4.98565673828125	3.09356689453125
69.0837598255803	4.21417236328125	3.03558349609375
70.0837598230555	4.0277099609375	3.01605224609375
71.0837598205308	2.7764892578125	3.05572509765625
72.083759818006	2.2296142578125	2.9974365234375
73.0837598154812	2.2979736328125	3.0364990234375
74.0837598129565	1.96044921875	2.9974365234375
75.0837598104317	1.71722412109375	2.957763671875
76.083759807907	1.57470703125	2.97821044921875
77.0837598053822	1.66412353515625	3.03619384765625
78.0837598028575	1.47918701171875	3.03680419921875
79.0837598003327	1.815185546875	2.996826171875
80.0837597978079	0.57769775390625	3.15277099609375
81.0837597952832	7.60223388671875	3.15216064453125
82.0837597927584	7.08648681640625	3.09417724609375
83.0837597902337	-0.89599609375	3.11492919921875
84.0837597877089	4.39239501953125	3.09478759765625
85.0837597851842	2.891845703125	3.11370849609375
86.0837597826594	1.9439697265625	3.074951171875
87.0837597801346	0.85723876953125	3.114013671875
88.0837597776099	1.33087158203125	3.1341552734375
89.0837597750851	0.97991943359375	3.13446044921875
90.0837597725604	0.9197998046875	3.11370849609375
91.0837597700356	0.01611328125	3.11431884765625
92.0837597675109	0.050537109375	3.114013671875
93.0837597649861	0.62103271484375	3.094482421875
94.0837597624613	10	3.09173583984375
95.0837597599366	10	3.11126708984375
96.0837597574118	9.18182373046875	3.09326171875
97.0837597548871	6.700439453125	3.07403564453125
98.0837597523623	4.2913818359375	3.0938720703125
99.0837597498376	4.08935546875	3.0938720703125
100.083759747313	4.23065185546875	3.094482421875
101.083759744788	3.84521484375	3.0755615234375
102.083759742263	3.4820556640625	3.05572509765625
103.083759739739	2.46002197265625	3.074951171875
104.083759737214	2.79327392578125	3.03558349609375
105.083759734689	2.667236328125	3.0755615234375
106.083759732164	4.90081787109375	3.074951171875
107.083759729639	-1.6412353515625	3.0767822265625
108.083759727115	-8.013916015625	3.076171875
109.08375972459	9.12353515625	3.09295654296875
110.083759722065	6.45172119140625	3.05419921875
111.08375971954	5.57861328125	3.05572509765625
112.083759717016	6.86859130859375	3.05511474609375
113.083759714491	7.88665771484375	3.07342529296875
114.083759711966	7.42095947265625	3.05450439453125
115.083759709441	10	3.0731201171875
116.083759706917	10	3.052978515625
117.083759704392	9.8773193359375	3.07342529296875
118.083759701867	9.74639892578125	3.03558349609375
119.083759699342	6.75567626953125	3.07373046875
120.083759696818	4.7064208984375	3.07403564453125
121.083759694293	4.4976806640625	3.07464599609375
122.083759691768	4.4439697265625	3.07464599609375
123.083759689243	4.10308837890625	3.0938720703125
124.083759686719	3.78082275390625	3.09478759765625
125.083759684194	3.228759765625	3.11309814453125
126.083759681669	2.85614013671875	3.09417724609375
127.083759679144	5.33172607421875	3.133544921875
128.08375967662	-1.54937744140625	3.09600830078125
129.083759674095	-5.203857421875	3.13446044921875
130.08375967157	-7.31536865234375	3.09661865234375
131.083759669045	-4.9609375	3.0377197265625
132.083759666521	-3.458251953125	3.05633544921875
133.083759663996	-4.28192138671875	3.0560302734375
134.083759661471	-1.82525634765625	3.076171875
135.083759658946	-2.91351318359375	3.07525634765625
136.083759656422	7.05596923828125	3.07464599609375
137.083759653897	10	3.0926513671875
138.083759651372	8.927001953125	3.0535888671875
139.083759648847	5.125732421875	3.0548095703125
140.083759646323	4.4805908203125	3.0938720703125
141.083759643798	4.78973388671875	3.1317138671875
142.083759641273	4.17510986328125	3.11309814453125
143.083759638748	3.79638671875	3.11431884765625
144.083759636223	3.4588623046875	3.13262939453125
145.083759633699	3.1561279296875	3.133544921875
146.083759631174	2.93121337890625	3.133544921875
147.083759628649	2.515869140625	3.11370849609375
148.083759626124	5.433349609375	3.11370849609375
149.0837596236	-0.28106689453125	3.09539794921875
150.083759621075	-6.2042236328125	3.076171875
151.08375961855	-4.32220458984375	3.07586669921875
152.083759616025	-1.6436767578125	3.076171875
153.083759613501	-3.5906982421875	3.03802490234375
154.083759610976	-2.47283935546875	3.05633544921875
155.083759608451	10	3.0914306640625
156.083759605926	9.39971923828125	3.07373046875
157.083759603402	7.66387939453125	3.07342529296875
158.083759600877	6.663818359375	3.09295654296875
159.083759598352	5.8416748046875	3.074951171875
160.083759595827	5.2716064453125	3.07403564453125
161.083759593303	2.67425537109375	3.0560302734375
162.083759590778	2.4285888671875	3.11370849609375
163.083759588253	2.9010009765625	3.1329345703125
164.083759585728	2.72979736328125	3.1134033203125
165.083759583204	2.49237060546875	3.11492919921875
166.083759580679	2.27264404296875	3.114013671875
167.083759578154	-0.709228515625	3.095703125
168.083759575629	-3.08837890625	3.09539794921875
169.083759573105	-0.260406494140625	3.13323974609375
170.08375957058	-0.2076416015625	3.09539794921875
171.083759568055	-3.08074951171875	3.0755615234375
172.08375956553	-3.6883544921875	3.11492919921875
173.083759563006	-3.450927734375	3.11492919921875
174.083759560481	-1.19384765625	3.11431884765625
175.083759557956	-1.287841796875	3.09478759765625
176.083759555431	-0.33935546875	3.153076171875
177.083759552906	-0.090789794921875	3.17291259765625
178.083759550382	0.26385498046875	3.1927490234375
179.083759547857	-0.6463623046875	3.19244384765625
180.083759545332	-0.892333984375	3.17352294921875
181.083759542807	-1.7919921875	3.19305419921875
182.083759540283	-2.645263671875	3.19305419921875
183.083759537758	3.00445556640625	3.1134033203125
184.083759535233	-0.5224609375	3.1927490234375
185.083759532708	3.17047119140625	3.03619384765625
186.083759530184	10	3.345947265625
187.083759527659	10	3.36578369140625
188.083759525134	9.57672119140625	3.3465576171875
189.083759522609	8.29254150390625	3.3660888671875
190.083759520085	7.32330322265625	3.34808349609375
191.08375951756	6.47735595703125	3.34716796875
192.083759515035	5.24993896484375	3.34716796875
193.08375951251	4.107666015625	3.3673095703125
194.083759509986	5.24993896484375	3.387451171875
195.083759507461	4.6923828125	3.34747314453125
196.083759504936	4.21417236328125	3.34747314453125
197.083759502411	3.82293701171875	3.3673095703125
198.083759499887	3.4783935546875	3.367919921875
199.083759497362	3.189697265625	3.3673095703125
200.083759494837	2.91015625	3.36883544921875
201.083759492312	2.6763916015625	3.36822509765625
202.083759489788	2.47039794921875	3.38775634765625
203.083759487263	2.22930908203125	3.349609375
204.083759484738	1.685791015625	3.36761474609375
205.083759482213	-1.33331298828125	3.36822509765625
206.083759479689	-3.11798095703125	3.3697509765625
207.083759477164	-6.25946044921875	2.587890625
208.083759474639	-7.0416259765625	3.1341552734375
209.083759472114	-5.34271240234375	3.1536865234375
210.083759469589	-3.86199951171875	3.0377197265625
211.083759467065	-1.805419921875	3.01727294921875
212.08375946454	-3.90106201171875	3.01788330078125
213.083759462015	-1.82281494140625	2.97698974609375
214.08375945949	0.81085205078125	3.1146240234375
215.083759456966	0.14190673828125	3.211669921875
216.083759454441	0.003326416015625	3.15399169921875
217.083759451916	-0.02764892578125	3.133544921875
218.083759449391	-0.16900634765625	3.15338134765625
219.083759446867	-0.25665283203125	3.11370849609375
220.083759444342	-0.201416015625	3.115234375
221.083759441817	-0.071685791015625	3.07647705078125
222.083759439292	-0.4901123046875	3.095703125
223.083759436768	0.085113525390625	3.05633544921875
224.083759434243	0.12274169921875	3.05633544921875
225.083759431718	-0.020263671875	3.035888671875
226.083759429193	0.77972412109375	3.056640625
227.083759426669	-2.78594970703125	3.018798828125
228.083759424144	0.087615966796875	3.03680419921875
229.083759421619	0.105743408203125	3.056640625
230.083759419094	0.10577392578125	3.0950927734375
231.08375941657	0.1058349609375	3.13385009765625
232.083759414045	0.10589599609375	3.13446044921875
233.08375941152	0.10595703125	3.153076171875
234.083759408995	0.10601806640625	3.15399169921875
235.083759406471	0.106048583984375	3.17413330078125
236.083759403946	0.106109619140625	3.1732177734375
237.083759401421	0.106170654296875	3.17291259765625
238.083759398896	0.106201171875	3.17230224609375
239.083759396372	0.10626220703125	3.1524658203125
240.083759393847	0.1063232421875	3.15277099609375
241.083759391322	0.106414794921875	3.173828125
242.083759388797	0.1064453125	3.17230224609375
243.083759386273	0.10650634765625	3.17291259765625
244.083759383748	0.1065673828125	3.173828125
245.083759381223	0.106597900390625	3.17230224609375
246.083759378698	0.106658935546875	3.17291259765625
247.083759376173	0.106719970703125	3.17352294921875
248.083759373649	0.10675048828125	3.1536865234375
249.083759371124	0.1068115234375	3.1732177734375
250.083759368599	0.106842041015625	3.17352294921875
251.083759366074	0.106903076171875	3.17352294921875
252.08375936355	0.10693359375	3.17352294921875
253.083759361025	0.10699462890625	3.15338134765625
254.0837593585	0.1070556640625	3.172607421875
255.083759355975	0.107086181640625	3.17413330078125
256.083759353451	0.107147216796875	3.1536865234375
257.083759350926	0.107177734375	3.15277099609375
258.083759348401	0.10723876953125	3.15216064453125
259.083759345876	0.1072998046875	3.13446044921875
260.083759343352	0.10736083984375	3.1524658203125
261.083759340827	0.107391357421875	3.1524658203125
262.083759338302	0.107421875	3.173828125
263.083759335777	0.10748291015625	3.133544921875
264.083759333253	0.107513427734375	3.1341552734375
265.083759330728	0.1075439453125	3.13446044921875
266.083759328203	0.10760498046875	3.1341552734375
267.083759325678	0.107635498046875	3.1341552734375
268.083759323154	0.107696533203125	3.15338134765625
269.083759320629	0.10772705078125	3.134765625
270.083759318104	0.107757568359375	3.13323974609375
271.083759315579	0.107818603515625	3.11553955078125
272.083759313055	0.107879638671875	3.1341552734375
273.08375931053	0.107879638671875	3.1341552734375
274.083759308005	0.107940673828125	3.15277099609375
275.08375930548	0.10797119140625	3.1536865234375
276.083759302956	0.1080322265625	3.13446044921875
277.083759300431	0.108062744140625	3.133544921875
278.083759297906	0.10809326171875	3.133544921875
279.083759295381	0.108154296875	3.11492919921875
280.083759292856	0.10821533203125	3.15399169921875
281.083759290332	0.108245849609375	3.15277099609375
282.083759287807	0.1082763671875	3.13323974609375
283.083759285282	0.10833740234375	3.13323974609375
284.083759282757	0.1083984375	3.1341552734375
285.083759280233	0.108428955078125	3.1146240234375
286.083759277708	0.10845947265625	3.13446044921875
287.083759275183	0.1085205078125	3.13446044921875
288.083759272658	0.108551025390625	3.13446044921875
289.083759270134	0.10858154296875	3.13385009765625
290.083759267609	0.108642578125	3.11431884765625
291.083759265084	0.108673095703125	3.13446044921875
292.083759262559	0.108734130859375	3.1134033203125
293.083759260035	0.1087646484375	3.13446044921875
294.08375925751	0.108795166015625	3.114013671875
295.083759254985	0.10882568359375	3.115234375
296.08375925246	0.10888671875	3.11431884765625
297.083759249936	0.108917236328125	3.1146240234375
298.083759247411	0.10894775390625	3.11431884765625
299.083759244886	0.1090087890625	3.09600830078125
300.083759242361	0.109039306640625	3.13385009765625
301.083759239837	0.10906982421875	3.0950927734375
302.083759237312	0.109130859375	3.1146240234375
