Time (s)	WE(1).Potential (V)	Corrected time (s)	Index	dWE(1).Potential/dt (V/s)	External(1).External 2 (V)	OCP value (V)
3.21721499187731	0.5859375	0	1	0	3.096923828125	0.58685302734375
4.21721498935256	0.5859375	0.999999997475243	2	0	3.10150146484375	
5.2172149868278	0.5859375	1.99999999495049	3	0	3.09814453125	
6.21721498430304	0.5859375	2.99999999242573	4	0	3.09967041015625	
7.21721498177828	0.5859375	3.99999998990097	5	0	3.1011962890625	
8.21721497925353	0.5859375	4.99999998737621	6	0	3.10272216796875	
9.21721497672877	0.5859375	5.99999998485146	7	0	3.099365234375	
10.217214974204	0.5859375	6.9999999823267	8	0	3.10089111328125	
11.2172149716793	0.5859375	7.99999997980194	9	0	3.1005859375	
12.2172149691545	0.58624267578125	8.99999997727718	10	0.00055948895169422	3.1005859375	
13.2172149666297	0.58624267578125	9.99999997475243	11	-0.00035603842115961	3.10089111328125	
14.217214964105	0.58624267578125	10.9999999722277	12	0.000101725257991347	3.10302734375	
15.2172149615802	0.58624267578125	11.9999999697029	13	0	3.0975341796875	
16.2172149590555	0.58624267578125	12.9999999671782	14	0	3.10272216796875	
17.2172149565307	0.58624267578125	13.9999999646534	15	0	3.10455322265625	
18.217214954006	0.58624267578125	14.9999999621286	16	0	3.1011962890625	
19.2172149514812	0.58624267578125	15.9999999596039	17	0	3.101806640625	
20.2172149489564	0.58624267578125	16.9999999570791	18	0	3.0859375	
21.2172149464317	0.58624267578125	17.9999999545544	19	0	3.10211181640625	
22.2172149439069	0.58624267578125	18.9999999520296	20	0	3.099365234375	
23.2172149413822	0.58624267578125	19.9999999495049	21	0	0.08795166015625	
24.2172149388574	0.58624267578125	20.9999999469801	22	0	0.088409423828125	
25.2172149363327	0.58624267578125	21.9999999444553	23	0	0.09051513671875	
26.2172149338079	0.58624267578125	22.9999999419306	24	0	0.085296630859375	
27.2172149312831	0.58624267578125	23.9999999394058	25	0	0.090484619140625	
28.2172149287584	0.58624267578125	24.9999999368811	26	0	0.090728759765625	
29.2172149262336	0.58624267578125	25.9999999343563	27	0	0.08990478515625	
30.2172149237089	0.58624267578125	26.9999999318316	28	0	0.088287353515625	
31.2172149211841	0.58624267578125	27.9999999293068	29	0	0.08880615234375	
32.2172149186594	0.5865478515625	28.999999926782	30	0.00055948895169422	0.09002685546875	
33.2172149161346	0.5865478515625	29.9999999242573	31	-0.00035603842115961	0.089874267578125	
34.2172149136098	0.5865478515625	30.9999999217325	32	0.000101725257991347	0.09136962890625	
35.2172149110851	0.5865478515625	31.9999999192078	33	0	0.088348388671875	
36.2172149085603	0.5865478515625	32.999999916683	34	0	0.090087890625	
37.2172149060356	0.5865478515625	33.9999999141583	35	0	0.090179443359375	
38.2172149035108	0.5865478515625	34.9999999116335	36	0	0.089599609375	
39.2172149009861	0.5865478515625	35.9999999091087	37	0	0.08740234375	
40.2172148984613	0.5865478515625	36.999999906584	38	0	0.088897705078125	
41.2172148959365	0.5865478515625	37.9999999040592	39	0	0.0880126953125	
42.2172148934118	0.5865478515625	38.9999999015345	40	0	0.08538818359375	
43.217214890887	0.5865478515625	39.9999998990097	41	0	0.08807373046875	
44.2172148883623	0.5865478515625	40.999999896485	42	0	0.090484619140625	
45.2172148858375	0.5865478515625	41.9999998939602	43	0	0.083892822265625	
46.2172148833127	0.5865478515625	42.9999998914354	44	0	0.611572265625	
47.217214880788	0.5865478515625	43.9999998889107	45	0	3.0999755859375	
48.2172148782632	0.5865478515625	44.9999998863859	46	0	3.09783935546875	
49.2172148757385	0.5865478515625	45.9999998838612	47	0	3.10211181640625	
50.2172148732137	0.5865478515625	46.9999998813364	48	0	3.10211181640625	
51.217214870689	0.5865478515625	47.9999998788117	49	0	3.101806640625	
52.2172148681642	0.5865478515625	48.9999998762869	50	0	3.0987548828125	
53.2172148656394	0.5865478515625	49.9999998737621	51	0	3.10333251953125	
54.2172148631147	0.5865478515625	50.9999998712374	52	0	3.101806640625	
55.2172148605899	0.5865478515625	51.9999998687126	53	0	3.101806640625	
56.2172148580652	0.5865478515625	52.9999998661879	54	0	3.10089111328125	
57.2172148555404	0.58685302734375	53.9999998636631	55	0.00055948895169422	3.09967041015625	
58.2172148530157	0.58685302734375	54.9999998611383	56	-0.00035603842115961	3.10089111328125	
59.2172148504909	0.58685302734375	55.9999998586136	57	0.000101725257991347	3.0999755859375	
60.2172148479661	0.58685302734375	56.9999998560888	58	0	3.101806640625	
61.2172148454414	0.58685302734375	57.9999998535641	59	0	3.10272216796875	
62.2172148429166	0.58685302734375	58.9999998510393	60	0	3.10089111328125	
63.2172148403919	0.58685302734375	59.9999998485146	61	0	3.10302734375	
64.2172148378671	0.58685302734375	60.9999998459898	62	0	3.09906005859375	
65.2172148353424	0.58685302734375	61.999999843465	63	0	3.10150146484375	
66.2172148328176	0.58685302734375	62.9999998409403	64	0	3.10394287109375	
67.2172148302928	0.58685302734375	63.9999998384155	65	0	3.10272216796875	
68.2172148277681	0.58685302734375	64.9999998358908	66	0	3.10028076171875	
69.2172148252433	0.58685302734375	65.999999833366	67	0	3.10333251953125	
70.2172148227186	0.58685302734375	66.9999998308413	68	0	3.1005859375	
71.2172148201938	0.58685302734375	67.9999998283165	69	0	3.10333251953125	
72.2172148176691	0.58685302734375	68.9999998257917	70	0	3.09722900390625	
73.2172148151443	0.58685302734375	69.999999823267	71	0	3.10302734375	
74.2172148126195	0.58685302734375	70.9999998207422	72	0	3.101806640625	
75.2172148100948	0.58685302734375	71.9999998182175	73	0	3.10211181640625	
76.21721480757	0.58685302734375	72.9999998156927	74	0	3.09783935546875	
77.2172148050453	0.58685302734375	73.999999813168	75	0	3.10272216796875	
78.2172148025205	0.58685302734375	74.9999998106432	76	0	3.09814453125	
79.2172147999958	0.58685302734375	75.9999998081184	77	0	3.101806640625	
80.217214797471	0.58685302734375	76.9999998055937	78	0	3.1024169921875	
81.2172147949462	0.58685302734375	77.9999998030689	79	0	3.1005859375	
82.2172147924215	0.58685302734375	78.9999998005442	80	0	3.09967041015625	
83.2172147898967	0.58685302734375	79.9999997980194	81	0	3.1011962890625	
84.217214787372	0.58685302734375	80.9999997954947	82	0	3.10302734375	
85.2172147848472	0.58685302734375	81.9999997929699	83	0	3.10028076171875	
86.2172147823225	0.58685302734375	82.9999997904451	84	0	3.09906005859375	
87.2172147797977	0.58685302734375	83.9999997879204	85	0	3.1011962890625	
88.2172147772729	0.58685302734375	84.9999997853956	86	0	3.10150146484375	
89.2172147747482	0.58685302734375	85.9999997828709	87	0	3.10302734375	
90.2172147722234	0.58685302734375	86.9999997803461	88	0	3.09967041015625	
91.2172147696987	0.58685302734375	87.9999997778214	89	0	3.10150146484375	
92.2172147671739	0.58685302734375	88.9999997752966	90	0	3.10333251953125	
93.2172147646492	0.58685302734375	89.9999997727718	91	0	3.1011962890625	
94.2172147621244	0.58685302734375	90.9999997702471	92	0	3.10089111328125	
95.2172147595996	0.58685302734375	91.9999997677223	93	0	3.09906005859375	
96.2172147570749	0.58685302734375	92.9999997651976	94	0	3.1024169921875	
97.2172147545501	0.58685302734375	93.9999997626728	95	0	3.1036376953125	
98.2172147520254	0.58685302734375	94.9999997601481	96	0	3.10333251953125	
99.2172147495006	0.58685302734375	95.9999997576233	97	0	3.09478759765625	
100.217214746976	0.58685302734375	96.9999997550985	98	0	3.10333251953125	
101.217214744451	0.58685302734375	97.9999997525738	99	0	3.099365234375	
102.217214741926	0.58685302734375	98.999999750049	100	0	3.0987548828125	
103.217214739402	0.587158203125	99.9999997475243	101	0.00055948895169422	3.10089111328125	
104.217214736877	0.587158203125	100.999999745	102	-0.00035603842115961	3.09844970703125	
105.217214734352	0.58685302734375	101.999999742475	103	-0.000457763671875	3.1005859375	
106.217214731827	0.58685302734375	102.99999973995	104	0.00035603842115961	3.10272216796875	
107.217214729303	0.58685302734375	103.999999737425	105	-0.000101725257991347	3.09814453125	
108.217214726778	0.58685302734375	104.9999997349	106	0	3.0987548828125	
109.217214724253	0.587158203125	105.999999732376	107	0.00055948895169422	3.10150146484375	
110.217214721728	0.587158203125	106.999999729851	108	-0.00035603842115961	3.1005859375	
111.217214719204	0.587158203125	107.999999727326	109	0.000101725257991347	3.1024169921875	
112.217214716679	0.58685302734375	108.999999724801	110	-0.00055948895169422	3.09722900390625	
113.217214714154	0.587158203125	109.999999722277	111	0.00091552734375	3.10211181640625	
114.217214711629	0.587158203125	110.999999719752	112	-0.000457763671875	3.09539794921875	
115.217214709105	0.58685302734375	111.999999717227	113	-0.000457763671875	3.10150146484375	
116.21721470658	0.587158203125	112.999999714702	114	0.00091552734375	3.10333251953125	
117.217214704055	0.587158203125	113.999999712178	115	-0.000457763671875	3.1011962890625	
118.21721470153	0.58685302734375	114.999999709653	116	-0.000457763671875	3.10028076171875	
119.217214699005	0.587158203125	115.999999707128	117	0.00091552734375	3.10333251953125	
120.217214696481	0.587158203125	116.999999704603	118	-0.000457763671875	3.101806640625	
121.217214693956	0.587158203125	117.999999702079	119	0.000101725257991347	3.101806640625	
122.217214691431	0.587158203125	118.999999699554	120	0	3.10028076171875	
123.217214688906	0.58685302734375	119.999999697029	121	-0.00055948895169422	3.10302734375	
124.217214686382	0.58685302734375	120.999999694504	122	0.00035603842115961	3.1005859375	
125.217214683857	0.58685302734375	121.99999969198	123	-0.000101725257991347	3.0975341796875	
126.217214681332	0.587158203125	122.999999689455	124	0.00055948895169422	3.10211181640625	
127.217214678807	0.58685302734375	123.99999968693	125	-0.00091552734375	3.09844970703125	
128.217214676283	0.58685302734375	124.999999684405	126	0.000457763671875	3.10150146484375	
129.217214673758	0.58685302734375	125.999999681881	127	-0.000101725257991347	3.0987548828125	
130.217214671233	0.58685302734375	126.999999679356	128	0	3.10272216796875	
131.217214668708	0.58685302734375	127.999999676831	129	0	3.1011962890625	
132.217214666184	0.58685302734375	128.999999674306	130	0	3.07769775390625	
133.217214663659	0.58685302734375	129.999999671782	131	0	3.09844970703125	
134.217214661134	0.58685302734375	130.999999669257	132	0	3.1005859375	
135.217214658609	0.58685302734375	131.999999666732	133	0	3.10211181640625	
136.217214656085	0.58685302734375	132.999999664207	134	0	3.0999755859375	
137.21721465356	0.58685302734375	133.999999661683	135	0	3.10211181640625	
138.217214651035	0.58685302734375	134.999999659158	136	0	3.0987548828125	
139.21721464851	0.58685302734375	135.999999656633	137	0	3.0987548828125	
140.217214645986	0.58685302734375	136.999999654108	138	0	3.101806640625	
141.217214643461	0.58685302734375	137.999999651583	139	0	3.10272216796875	
142.217214640936	0.58685302734375	138.999999649059	140	0	3.10028076171875	
143.217214638411	0.58685302734375	139.999999646534	141	0	3.099365234375	
144.217214635887	0.58685302734375	140.999999644009	142	0	3.08258056640625	
145.217214633362	0.58685302734375	141.999999641484	143	0	3.1005859375	
146.217214630837	0.58685302734375	142.99999963896	144	0	3.08197021484375	
147.217214628312	0.58685302734375	143.999999636435	145	0	3.08074951171875	
148.217214625788	0.58685302734375	144.99999963391	146	0	3.09814453125	
149.217214623263	0.58685302734375	145.999999631385	147	0	3.10302734375	
150.217214620738	0.58685302734375	146.999999628861	148	0	3.10028076171875	
151.217214618213	0.58685302734375	147.999999626336	149	0	3.101806640625	
152.217214615688	0.58685302734375	148.999999623811	150	0	3.0963134765625	
153.217214613164	0.58685302734375	149.999999621286	151	0	3.082275390625	
154.217214610639	0.58685302734375	150.999999618762	152	0	3.08074951171875	
155.217214608114	0.58685302734375	151.999999616237	153	0	3.0816650390625	
156.217214605589	0.58685302734375	152.999999613712	154	0	3.08319091796875	
157.217214603065	0.58685302734375	153.999999611187	155	0	3.08013916015625	
158.21721460054	0.58685302734375	154.999999608663	156	0	3.077392578125	
159.217214598015	0.58685302734375	155.999999606138	157	0	3.08013916015625	
160.21721459549	0.58685302734375	156.999999603613	158	0	3.08258056640625	
161.217214592966	0.58685302734375	157.999999601088	159	0	3.0816650390625	
162.217214590441	0.58685302734375	158.999999598564	160	0	3.07861328125	
163.217214587916	0.58685302734375	159.999999596039	161	0	3.0810546875	
164.217214585391	0.58685302734375	160.999999593514	162	0	3.082275390625	
165.217214582867	0.58685302734375	161.999999590989	163	0	3.0987548828125	
166.217214580342	0.58685302734375	162.999999588465	164	0	3.08441162109375	
167.217214577817	0.58685302734375	163.99999958594	165	0	3.0828857421875	
168.217214575292	0.58685302734375	164.999999583415	166	0	3.08197021484375	
169.217214572768	0.58685302734375	165.99999958089	167	0	3.08013916015625	
170.217214570243	0.58685302734375	166.999999578366	168	0	3.08349609375	
171.217214567718	0.58685302734375	167.999999575841	169	0	3.08380126953125	
172.217214565193	0.58685302734375	168.999999573316	170	0	3.08013916015625	
173.217214562669	0.58685302734375	169.999999570791	171	0	3.0816650390625	
174.217214560144	0.58685302734375	170.999999568267	172	0	3.08197021484375	
175.217214557619	0.58685302734375	171.999999565742	173	0	3.08319091796875	
176.217214555094	0.58685302734375	172.999999563217	174	0	3.08258056640625	
177.21721455257	0.58685302734375	173.999999560692	175	0	3.08197021484375	
178.217214550045	0.58685302734375	174.999999558167	176	0	3.08074951171875	
179.21721454752	0.58685302734375	175.999999555643	177	0	3.0828857421875	
180.217214544995	0.58685302734375	176.999999553118	178	0	3.08013916015625	
181.217214542471	0.58685302734375	177.999999550593	179	0	3.08258056640625	
182.217214539946	0.58685302734375	178.999999548068	180	0	3.0816650390625	
