Time (s)	WE(1).Potential (V)	External(1).External 2 (V)
2.34520099407894	0.9307861328125	3.00323486328125
3.34520099155418	0.931396484375	3.00628662109375
4.34520098902942	0.93170166015625	3.0010986328125
5.34520098650466	0.92987060546875	3.0029296875
6.34520098397991	0.92926025390625	3.00628662109375
7.34520098145515	0.92803955078125	3.0029296875
8.34520097893039	0.92620849609375	3.00323486328125
9.34520097640564	0.9259033203125	3.00323486328125
10.3452009738809	0.92620849609375	3.00537109375
11.3452009713561	0.927734375	3.0023193359375
12.3452009688314	0.92376708984375	3.001708984375
13.3452009663066	0.92376708984375	3.00628662109375
14.3452009637818	0.9222412109375	3.00872802734375
15.3452009612571	0.92071533203125	3.0059814453125
16.3452009587323	0.91949462890625	2.99041748046875
17.3452009562076	0.91766357421875	3.001708984375
18.3452009536828	0.91644287109375	3.0047607421875
19.3452009511581	0.9161376953125	3.0059814453125
20.3452009486333	0.9130859375	3.00506591796875
21.3452009461085	0.91400146484375	3.00445556640625
22.3452009435838	0.9124755859375	3.00689697265625
23.345200941059	0.91156005859375	3.00506591796875
24.3452009385343	0.9124755859375	3.0035400390625
25.3452009360095	0.90362548828125	3.001708984375
26.3452009334848	0.8795166015625	3.00445556640625
27.34520093096	0.88409423828125	3.006591796875
28.3452009284352	0.87982177734375	3.00750732421875
29.3452009259105	0.6280517578125	0.091583251953125
30.3452009233857	0.78155517578125	0.086944580078125
31.345200920861	0.8978271484375	0.08856201171875
32.3452009183362	0.938720703125	0.087982177734375
33.3452009158115	0.9429931640625	0.08929443359375
34.3452009132867	0.9423828125	0.08941650390625
35.3452009107619	0.93505859375	0.088592529296875
36.3452009082372	0.93353271484375	0.0906982421875
37.3452009057124	0.933837890625	0.08953857421875
38.3452009031877	0.931396484375	0.09027099609375
39.3452009006629	0.9332275390625	0.090576171875
40.3452008981382	0.92437744140625	0.0865478515625
41.3452008956134	0.9307861328125	0.08990478515625
42.3452008930886	0.92193603515625	0.088226318359375
43.3452008905639	0.977783203125	0.09033203125
44.3452008880391	0.84716796875	0.089752197265625
45.3452008855144	0.84869384765625	2.48291015625
46.3452008829896	0.89141845703125	3.0230712890625
47.3452008804649	0.9246826171875	3.0029296875
48.3452008779401	0.9246826171875	3.0224609375
49.3452008754153	0.9027099609375	3.02459716796875
50.3452008728906	0.91644287109375	3.00537109375
51.3452008703658	0.91339111328125	3.0230712890625
52.3452008678411	0.91644287109375	3.0242919921875
53.3452008653163	0.91400146484375	3.0230712890625
54.3452008627916	0.91064453125	3.02337646484375
55.3452008602668	0.906982421875	3.02276611328125
56.345200857742	0.902099609375	3.02703857421875
57.3452008552173	0.90118408203125	3.02734375
58.3452008526925	0.899658203125	3.00689697265625
59.3452008501678	0.897216796875	3.0218505859375
60.345200847643	0.8551025390625	3.04443359375
61.3452008451183	0.86639404296875	3.02581787109375
