Time (s)	WE(1).Potential (V)
1.88021699525291	0.6011962890625
2.88021699272815	0.60150146484375
3.88021699020339	0.60150146484375
4.88021698767864	0.60150146484375
5.88021698515388	0.60150146484375
6.88021698262912	0.60150146484375
7.88021698010436	0.60150146484375
8.88021697757961	0.60150146484375
9.88021697505485	0.60150146484375
10.8802169725301	0.601806640625
11.8802169700053	0.601806640625
12.8802169674806	0.601806640625
13.8802169649558	0.601806640625
14.8802169624311	0.601806640625
15.8802169599063	0.601806640625
16.8802169573815	0.601806640625
17.8802169548568	0.601806640625
18.880216952332	0.60211181640625
19.8802169498073	0.60211181640625
20.8802169472825	0.60211181640625
21.8802169447578	0.60211181640625
22.880216942233	0.60211181640625
23.8802169397082	0.60211181640625
24.8802169371835	0.60211181640625
25.8802169346587	0.6024169921875
26.880216932134	0.6024169921875
27.8802169296092	0.6024169921875
28.8802169270845	0.6024169921875
29.8802169245597	0.6024169921875
30.8802169220349	0.6024169921875
31.8802169195102	0.6024169921875
32.8802169169854	0.6024169921875
33.8802169144607	0.6024169921875
34.8802169119359	0.6024169921875
35.8802169094112	0.60272216796875
36.8802169068864	0.60272216796875
37.8802169043616	0.60272216796875
38.8802169018369	0.60272216796875
39.8802168993121	0.60272216796875
40.8802168967874	0.60272216796875
41.8802168942626	0.60272216796875
42.8802168917379	0.60272216796875
43.8802168892131	0.60302734375
44.8802168866883	0.60302734375
45.8802168841636	0.60302734375
46.8802168816388	0.60302734375
47.8802168791141	0.60302734375
48.8802168765893	0.60302734375
49.8802168740646	0.60302734375
50.8802168715398	0.60302734375
51.880216869015	0.60302734375
52.8802168664903	0.60333251953125
53.8802168639655	0.60333251953125
54.8802168614408	0.60333251953125
55.880216858916	0.60333251953125
56.8802168563913	0.60333251953125
57.8802168538665	0.60333251953125
58.8802168513417	0.60333251953125
59.880216848817	0.60333251953125
60.8802168462922	0.60333251953125
61.8802168437675	0.6036376953125
62.8802168412427	0.6036376953125
63.880216838718	0.6036376953125
64.8802168361932	0.6036376953125
65.8802168336684	0.6036376953125
66.8802168311437	0.6036376953125
67.8802168286189	0.60394287109375
68.8802168260942	0.60394287109375
69.8802168235694	0.60394287109375
70.8802168210447	0.60394287109375
71.8802168185199	0.60394287109375
72.8802168159951	0.604248046875
73.8802168134704	0.60394287109375
74.8802168109456	0.60394287109375
75.8802168084209	0.604248046875
76.8802168058961	0.604248046875
77.8802168033714	0.604248046875
78.8802168008466	0.604248046875
79.8802167983218	0.604248046875
80.8802167957971	0.604248046875
81.8802167932723	0.604248046875
82.8802167907476	0.60455322265625
83.8802167882228	0.60455322265625
84.8802167856981	0.60455322265625
85.8802167831733	0.60455322265625
86.8802167806485	0.60455322265625
87.8802167781238	0.60455322265625
88.880216775599	0.60455322265625
89.8802167730743	0.60455322265625
90.8802167705495	0.60455322265625
91.8802167680248	0.6048583984375
92.8802167655	0.6048583984375
93.8802167629752	0.6048583984375
94.8802167604505	0.6048583984375
95.8802167579257	0.6048583984375
96.880216755401	0.6048583984375
97.8802167528762	0.6048583984375
98.8802167503515	0.60516357421875
99.8802167478267	0.60516357421875
100.880216745302	0.60516357421875
101.880216742777	0.60516357421875
102.880216740252	0.60516357421875
103.880216737728	0.60516357421875
104.880216735203	0.60516357421875
105.880216732678	0.60516357421875
106.880216730153	0.60546875
107.880216727629	0.60546875
108.880216725104	0.60546875
109.880216722579	0.60546875
110.880216720054	0.60546875
111.88021671753	0.60546875
112.880216715005	0.60577392578125
113.88021671248	0.60577392578125
114.880216709955	0.60577392578125
115.880216707431	0.60577392578125
116.880216704906	0.60577392578125
117.880216702381	0.60577392578125
118.880216699856	0.60577392578125
119.880216697332	0.60577392578125
120.880216694807	0.60577392578125
121.880216692282	0.6060791015625
122.880216689757	0.6060791015625
123.880216687233	0.6060791015625
124.880216684708	0.6060791015625
125.880216682183	0.6060791015625
126.880216679658	0.6060791015625
127.880216677133	0.6060791015625
128.880216674609	0.60638427734375
129.880216672084	0.60638427734375
130.880216669559	0.60638427734375
131.880216667034	0.60638427734375
132.88021666451	0.60638427734375
133.880216661985	0.60638427734375
134.88021665946	0.60638427734375
135.880216656935	0.60638427734375
136.880216654411	0.60638427734375
137.880216651886	0.606689453125
138.880216649361	0.606689453125
139.880216646836	0.606689453125
140.880216644312	0.606689453125
141.880216641787	0.606689453125
142.880216639262	0.606689453125
143.880216636737	0.606689453125
144.880216634213	0.606689453125
145.880216631688	0.60699462890625
146.880216629163	0.60699462890625
147.880216626638	0.60699462890625
148.880216624114	0.60699462890625
149.880216621589	0.60699462890625
150.880216619064	0.60699462890625
151.880216616539	0.60699462890625
152.880216614015	0.60699462890625
153.88021661149	0.60699462890625
154.880216608965	0.60699462890625
155.88021660644	0.60699462890625
156.880216603916	0.6072998046875
157.880216601391	0.6072998046875
158.880216598866	0.6072998046875
159.880216596341	0.6072998046875
160.880216593816	0.6072998046875
161.880216591292	0.6072998046875
162.880216588767	0.6072998046875
163.880216586242	0.6072998046875
164.880216583717	0.6072998046875
165.880216581193	0.60760498046875
166.880216578668	0.60760498046875
167.880216576143	0.60760498046875
168.880216573618	0.60760498046875
169.880216571094	0.60760498046875
170.880216568569	0.60760498046875
171.880216566044	0.60760498046875
172.880216563519	0.60760498046875
173.880216560995	0.60760498046875
174.88021655847	0.60760498046875
175.880216555945	0.60760498046875
176.88021655342	0.60760498046875
177.880216550896	0.60791015625
178.880216548371	0.60791015625
179.880216545846	0.60791015625
180.880216543321	0.60791015625
