Time (s)	WE(1).Potential (V)
4156.11504750682	0.570068359375
4157.11504750429	0.5389404296875
4158.11504750177	0.51177978515625
4159.11504749924	0.488037109375
4160.11504749672	0.468505859375
4161.11504749419	0.452667236328125
4162.11504749167	0.440216064453125
4163.11504748914	0.430755615234375
4164.11504748662	0.423736572265625
4165.1150474841	0.41864013671875
4166.11504748157	0.4150390625
4167.11504747905	0.412567138671875
4168.11504747652	0.410919189453125
4169.115047474	0.409912109375
4170.11504747147	0.409423828125
4171.11504746895	0.409332275390625
4172.11504746642	0.409515380859375
4173.1150474639	0.409942626953125
4174.11504746137	0.4105224609375
4175.11504745885	0.4112548828125
4176.11504745632	0.41204833984375
4177.1150474538	0.4129638671875
4178.11504745127	0.413909912109375
4179.11504744875	0.4149169921875
4180.11504744622	0.41595458984375
4181.1150474437	0.4169921875
4182.11504744117	0.418121337890625
4183.11504743865	0.419219970703125
4184.11504743612	0.420318603515625
4185.1150474336	0.42144775390625
4186.11504743108	0.42254638671875
4187.11504742855	0.42364501953125
4188.11504742603	0.424774169921875
4189.1150474235	0.4259033203125
4190.11504742098	0.427001953125
4191.11504741845	0.4281005859375
4192.11504741593	0.429168701171875
4193.1150474134	0.43023681640625
4194.11504741088	0.431304931640625
4195.11504740835	0.432342529296875
4196.11504740583	0.433380126953125
4197.1150474033	0.434417724609375
4198.11504740078	0.4354248046875
4199.11504739825	0.436431884765625
4200.11504739573	0.4373779296875
4201.1150473932	0.4383544921875
4202.11504739068	0.4393310546875
4203.11504738815	0.44024658203125
4204.11504738563	0.441162109375
4205.1150473831	0.44207763671875
4206.11504738058	0.4429931640625
4207.11504737806	0.443878173828125
4208.11504737553	0.444732666015625
4209.11504737301	0.445587158203125
4210.11504737048	0.446441650390625
4211.11504736796	0.447265625
4212.11504736543	0.448089599609375
4213.11504736291	0.448883056640625
4214.11504736038	0.44964599609375
4215.11504735786	0.450439453125
4216.11504735533	0.451202392578125
4217.11504735281	0.451934814453125
4218.11504735028	0.452667236328125
4219.11504734776	0.453399658203125
4220.11504734523	0.4541015625
4221.11504734271	0.454803466796875
4222.11504734018	0.45550537109375
4223.11504733766	0.4561767578125
4224.11504733513	0.45684814453125
4225.11504733261	0.45751953125
4226.11504733008	0.458160400390625
4227.11504732756	0.458831787109375
4228.11504732504	0.45947265625
4229.11504732251	0.4600830078125
4230.11504731999	0.460723876953125
4231.11504731746	0.4613037109375
4232.11504731494	0.461883544921875
4233.11504731241	0.46246337890625
4234.11504730989	0.4630126953125
4235.11504730736	0.463592529296875
4236.11504730484	0.464141845703125
4237.11504730231	0.464691162109375
4238.11504729979	0.465240478515625
4239.11504729726	0.46575927734375
4240.11504729474	0.466278076171875
4241.11504729221	0.466827392578125
4242.11504728969	0.46734619140625
4243.11504728716	0.467864990234375
4244.11504728464	0.468353271484375
4245.11504728211	0.4688720703125
4246.11504727959	0.4693603515625
4247.11504727707	0.4698486328125
4248.11504727454	0.470306396484375
4249.11504727202	0.470794677734375
4250.11504726949	0.47125244140625
4251.11504726697	0.471710205078125
4252.11504726444	0.472137451171875
4253.11504726192	0.472564697265625
4254.11504725939	0.472991943359375
4255.11504725687	0.473419189453125
4256.11504725434	0.473846435546875
4257.11504725182	0.474273681640625
4258.11504724929	0.47467041015625
4259.11504724677	0.47509765625
4260.11504724424	0.475494384765625
4261.11504724172	0.47589111328125
4262.11504723919	0.47625732421875
4263.11504723667	0.476654052734375
4264.11504723414	0.477020263671875
4265.11504723162	0.4774169921875
4266.11504722909	0.477783203125
4267.11504722657	0.4781494140625
4268.11504722405	0.478515625
4269.11504722152	0.4788818359375
4270.115047219	0.479278564453125
4271.11504721647	0.479644775390625
4272.11504721395	0.480010986328125
4273.11504721142	0.4803466796875
4274.1150472089	0.480743408203125
4275.11504720637	0.481109619140625
4276.11504720385	0.4814453125
4277.11504720132	0.481781005859375
4278.1150471988	0.482147216796875
4279.11504719627	0.48248291015625
4280.11504719375	0.482818603515625
4281.11504719122	0.483154296875
4282.1150471887	0.483489990234375
4283.11504718617	0.483795166015625
4284.11504718365	0.484130859375
4285.11504718112	0.48443603515625
4286.1150471786	0.484771728515625
4287.11504717607	0.485076904296875
4288.11504717355	0.485382080078125
4289.11504717103	0.485687255859375
4290.1150471685	0.485992431640625
4291.11504716598	0.486297607421875
4292.11504716345	0.486602783203125
4293.11504716093	0.486907958984375
4294.1150471584	0.487213134765625
4295.11504715588	0.487518310546875
4296.11504715335	0.48779296875
4297.11504715083	0.488067626953125
4298.1150471483	0.488372802734375
4299.11504714578	0.488677978515625
4300.11504714325	0.48895263671875
4301.11504714073	0.489227294921875
4302.1150471382	0.489532470703125
4303.11504713568	0.48980712890625
4304.11504713315	0.490081787109375
4305.11504713063	0.490325927734375
4306.1150471281	0.4906005859375
4307.11504712558	0.490875244140625
4308.11504712305	0.49114990234375
4309.11504712053	0.491424560546875
4310.11504711801	0.49169921875
4311.11504711548	0.491943359375
4312.11504711296	0.492218017578125
4313.11504711043	0.49249267578125
4314.11504710791	0.49273681640625
4315.11504710538	0.49298095703125
4316.11504710286	0.493255615234375
4317.11504710033	0.4935302734375
4318.11504709781	0.4937744140625
4319.11504709528	0.4940185546875
4320.11504709276	0.4942626953125
4321.11504709023	0.4945068359375
4322.11504708771	0.494781494140625
4323.11504708518	0.495025634765625
4324.11504708266	0.495269775390625
4325.11504708013	0.495513916015625
4326.11504707761	0.495758056640625
4327.11504707508	0.496002197265625
4328.11504707256	0.49627685546875
4329.11504707003	0.496490478515625
4330.11504706751	0.496734619140625
4331.11504706499	0.4969482421875
4332.11504706246	0.4971923828125
4333.11504705994	0.4974365234375
4334.11504705741	0.49761962890625
4335.11504705489	0.49786376953125
