Time (s)	WE(1).Potential (V)
2.01721599490702	0.538330078125
3.01721599238226	0.5389404296875
4.0172159898575	0.53924560546875
5.01721598733275	0.53955078125
6.01721598480799	0.5401611328125
7.01721598228323	0.54046630859375
8.01721597975848	0.540771484375
9.01721597723372	0.54107666015625
10.017215974709	0.54168701171875
11.0172159721842	0.5419921875
12.0172159696594	0.54229736328125
13.0172159671347	0.54290771484375
14.0172159646099	0.543212890625
15.0172159620852	0.54351806640625
16.0172159595604	0.54412841796875
17.0172159570357	0.54412841796875
18.0172159545109	0.54473876953125
19.0172159519861	0.5450439453125
20.0172159494614	0.545654296875
21.0172159469366	0.54595947265625
22.0172159444119	0.5462646484375
23.0172159418871	0.54656982421875
24.0172159393624	0.546875
25.0172159368376	0.54718017578125
26.0172159343128	0.5474853515625
27.0172159317881	0.548095703125
28.0172159292633	0.54840087890625
29.0172159267386	0.5487060546875
30.0172159242138	0.54901123046875
31.0172159216891	0.54931640625
32.0172159191643	0.5499267578125
33.0172159166395	0.55023193359375
34.0172159141148	0.55023193359375
35.01721591159	0.550537109375
36.0172159090653	0.5511474609375
37.0172159065405	0.55145263671875
38.0172159040158	0.55206298828125
39.017215901491	0.5523681640625
40.0172158989662	0.55267333984375
41.0172158964415	0.552978515625
42.0172158939167	0.55328369140625
43.017215891392	0.5535888671875
44.0172158888672	0.55419921875
45.0172158863425	0.55450439453125
46.0172158838177	0.55511474609375
47.0172158812929	0.555419921875
48.0172158787682	0.55572509765625
49.0172158762434	0.5560302734375
50.0172158737187	0.55633544921875
51.0172158711939	0.556640625
52.0172158686692	0.55694580078125
53.0172158661444	0.5572509765625
54.0172158636196	0.55755615234375
55.0172158610949	0.55816650390625
56.0172158585701	0.5584716796875
57.0172158560454	0.55877685546875
58.0172158535206	0.55908203125
59.0172158509959	0.55938720703125
60.0172158484711	0.5596923828125
61.0172158459463	0.55999755859375
62.0172158434216	0.560302734375
63.0172158408968	0.56060791015625
64.0172158383721	0.5609130859375
65.0172158358473	0.56121826171875
66.0172158333226	0.5615234375
67.0172158307978	0.5615234375
68.017215828273	0.56182861328125
69.0172158257483	0.56243896484375
70.0172158232235	0.56243896484375
71.0172158206988	0.56304931640625
72.017215818174	0.56304931640625
73.0172158156493	0.5633544921875
74.0172158131245	0.5633544921875
75.0172158105997	0.56365966796875
76.017215808075	0.56396484375
77.0172158055502	0.56396484375
78.0172158030255	0.56427001953125
79.0172158005007	0.5645751953125
80.017215797976	0.5645751953125
81.0172157954512	0.56488037109375
82.0172157929264	0.565185546875
83.0172157904017	0.56549072265625
84.0172157878769	0.56549072265625
85.0172157853522	0.5657958984375
86.0172157828274	0.5657958984375
87.0172157803026	0.5657958984375
88.0172157777779	0.56610107421875
89.0172157752531	0.56640625
90.0172157727284	0.56640625
91.0172157702036	0.56671142578125
92.0172157676789	0.56671142578125
93.0172157651541	0.5670166015625
94.0172157626293	0.5670166015625
95.0172157601046	0.56732177734375
96.0172157575798	0.56732177734375
97.0172157550551	0.567626953125
98.0172157525303	0.56793212890625
99.0172157500056	0.56793212890625
100.017215747481	0.5682373046875
101.017215744956	0.5682373046875
102.017215742431	0.5682373046875
103.017215739907	0.56854248046875
104.017215737382	0.56884765625
105.017215734857	0.56884765625
106.017215732332	0.56915283203125
107.017215729808	0.56915283203125
108.017215727283	0.5694580078125
109.017215724758	0.5694580078125
110.017215722233	0.56976318359375
111.017215719708	0.570068359375
112.017215717184	0.570068359375
113.017215714659	0.57037353515625
114.017215712134	0.57037353515625
115.017215709609	0.5706787109375
116.017215707085	0.5706787109375
117.01721570456	0.57098388671875
118.017215702035	0.57098388671875
119.01721569951	0.5712890625
120.017215696986	0.5712890625
121.017215694461	0.5712890625
122.017215691936	0.57159423828125
123.017215689411	0.57159423828125
124.017215686887	0.5718994140625
125.017215684362	0.5718994140625
126.017215681837	0.57220458984375
127.017215679312	0.57220458984375
128.017215676788	0.572509765625
129.017215674263	0.572509765625
130.017215671738	0.57281494140625
131.017215669213	0.57281494140625
132.017215666689	0.5731201171875
133.017215664164	0.5731201171875
134.017215661639	0.57342529296875
135.017215659114	0.57342529296875
136.01721565659	0.57373046875
137.017215654065	0.57373046875
138.01721565154	0.57403564453125
139.017215649015	0.57403564453125
140.017215646491	0.5743408203125
141.017215643966	0.57464599609375
142.017215641441	0.57464599609375
143.017215638916	0.574951171875
144.017215636391	0.574951171875
145.017215633867	0.57525634765625
146.017215631342	0.57525634765625
147.017215628817	0.5755615234375
148.017215626292	0.5755615234375
149.017215623768	0.57586669921875
150.017215621243	0.57586669921875
151.017215618718	0.57586669921875
152.017215616193	0.576171875
153.017215613669	0.576171875
154.017215611144	0.57647705078125
155.017215608619	0.57647705078125
156.017215606094	0.5767822265625
157.01721560357	0.5767822265625
158.017215601045	0.5767822265625
159.01721559852	0.57708740234375
160.017215595995	0.57708740234375
161.017215593471	0.57708740234375
162.017215590946	0.577392578125
163.017215588421	0.577392578125
164.017215585896	0.57769775390625
165.017215583372	0.57769775390625
166.017215580847	0.5780029296875
167.017215578322	0.5780029296875
168.017215575797	0.5780029296875
169.017215573273	0.57830810546875
170.017215570748	0.57830810546875
171.017215568223	0.57861328125
172.017215565698	0.57861328125
173.017215563174	0.57861328125
174.017215560649	0.57891845703125
175.017215558124	0.57891845703125
176.017215555599	0.5792236328125
177.017215553074	0.5792236328125
178.01721555055	0.57952880859375
179.017215548025	0.57952880859375
180.0172155455	0.57952880859375
181.017215542975	0.579833984375
