Time (s)	WE(1).Potential (V)
5479.87555816464	0.57373046875
5480.87555816212	0.567626953125
5481.87555815959	0.5615234375
5482.87555815707	0.5560302734375
5483.87555815454	0.55084228515625
5484.87555815202	0.5462646484375
5485.8755581495	0.54168701171875
5486.87555814697	0.53741455078125
5487.87555814445	0.533447265625
5488.87555814192	0.52978515625
5489.8755581394	0.526123046875
5490.87555813687	0.52276611328125
5491.87555813435	0.51971435546875
5492.87555813182	0.5169677734375
5493.8755581293	0.51422119140625
5494.87555812677	0.51177978515625
5495.87555812425	0.50933837890625
5496.87555812172	0.5072021484375
5497.8755581192	0.50506591796875
5498.87555811667	0.50323486328125
5499.87555811415	0.50140380859375
5500.87555811162	0.4998779296875
5501.8755581091	0.497955322265625
5502.87555810657	0.4964599609375
5503.87555810405	0.49505615234375
5504.87555810152	0.4937744140625
5505.875558099	0.4925537109375
5506.87555809648	0.49127197265625
5507.87555809395	0.490203857421875
5508.87555809143	0.48919677734375
5509.8755580889	0.488372802734375
5510.87555808638	0.487579345703125
5511.87555808385	0.486846923828125
5512.87555808133	0.486175537109375
5513.8755580788	0.48553466796875
5514.87555807628	0.4849853515625
5515.87555807375	0.48443603515625
5516.87555807123	0.483917236328125
5517.8755580687	0.48345947265625
5518.87555806618	0.483001708984375
5519.87555806365	0.48260498046875
5520.87555806113	0.482269287109375
5521.8755580586	0.481903076171875
5522.87555805608	0.48162841796875
5523.87555805355	0.4813232421875
5524.87555805103	0.4810791015625
5525.8755580485	0.4808349609375
5526.87555804598	0.480621337890625
5527.87555804346	0.480438232421875
5528.87555804093	0.480255126953125
5529.87555803841	0.480072021484375
5530.87555803588	0.47991943359375
5531.87555803336	0.479766845703125
5532.87555803083	0.479644775390625
5533.87555802831	0.479522705078125
5534.87555802578	0.47943115234375
5535.87555802326	0.4793701171875
5536.87555802073	0.47930908203125
5537.87555801821	0.479217529296875
5538.87555801568	0.479156494140625
5539.87555801316	0.4791259765625
5540.87555801063	0.479095458984375
5541.87555800811	0.479034423828125
5542.87555800558	0.479034423828125
5543.87555800306	0.47900390625
5544.87555800053	0.47900390625
5545.87555799801	0.478973388671875
5546.87555799548	0.47894287109375
5547.87555799296	0.47894287109375
5548.87555799044	0.47894287109375
5549.87555798791	0.47894287109375
5550.87555798539	0.478973388671875
5551.87555798286	0.47900390625
5552.87555798034	0.478973388671875
5553.87555797781	0.47900390625
5554.87555797529	0.478973388671875
5555.87555797276	0.47894287109375
5556.87555797024	0.478973388671875
5557.87555796771	0.479095458984375
5558.87555796519	0.479248046875
5559.87555796266	0.479400634765625
5560.87555796014	0.479522705078125
5561.87555795761	0.479705810546875
5562.87555795509	0.479766845703125
5563.87555795256	0.479766845703125
5564.87555795004	0.479766845703125
5565.87555794751	0.479766845703125
5566.87555794499	0.479827880859375
5567.87555794247	0.4798583984375
5568.87555793994	0.479827880859375
5569.87555793742	0.47979736328125
5570.87555793489	0.479827880859375
5571.87555793237	0.4798583984375
5572.87555792984	0.479888916015625
5573.87555792732	0.4798583984375
5574.87555792479	0.479827880859375
5575.87555792227	0.4798583984375
5576.87555791974	0.479888916015625
5577.87555791722	0.4798583984375
5578.87555791469	0.4798583984375
5579.87555791217	0.479888916015625
5580.87555790964	0.479949951171875
5581.87555790712	0.47998046875
5582.87555790459	0.48004150390625
5583.87555790207	0.4801025390625
5584.87555789954	0.480133056640625
5585.87555789702	0.48016357421875
5586.87555789449	0.480194091796875
5587.87555789197	0.480194091796875
5588.87555788945	0.48028564453125
5589.87555788692	0.480621337890625
5590.8755578844	0.48095703125
5591.87555788187	0.48089599609375
5592.87555787935	0.48089599609375
5593.87555787682	0.480865478515625
5594.8755578743	0.4808349609375
5595.87555787177	0.4808349609375
5596.87555786925	0.4808349609375
5597.87555786672	0.4808349609375
5598.8755578642	0.4808349609375
5599.87555786167	0.4808349609375
5600.87555785915	0.4808349609375
5601.87555785662	0.48089599609375
5602.8755578541	0.480926513671875
5603.87555785157	0.48095703125
5604.87555784905	0.48101806640625
5605.87555784652	0.481048583984375
5606.875557844	0.4810791015625
5607.87555784147	0.481170654296875
5608.87555783895	0.481201171875
5609.87555783643	0.481231689453125
5610.8755578339	0.481231689453125
5611.87555783138	0.48126220703125
5612.87555782885	0.481292724609375
5613.87555782633	0.48126220703125
5614.8755578238	0.481292724609375
5615.87555782128	0.48126220703125
5616.87555781875	0.481292724609375
5617.87555781623	0.481353759765625
5618.8755578137	0.48138427734375
5619.87555781118	0.481414794921875
5620.87555780865	0.48150634765625
5621.87555780613	0.481536865234375
5622.8755578036	0.4815673828125
5623.87555780108	0.4815673828125
5624.87555779855	0.481597900390625
5625.87555779603	0.48162841796875
5626.8755577935	0.48162841796875
5627.87555779098	0.48162841796875
5628.87555778845	0.481658935546875
5629.87555778593	0.481719970703125
5630.87555778341	0.4818115234375
5631.87555778088	0.481964111328125
5632.87555777836	0.482086181640625
5633.87555777583	0.482208251953125
5634.87555777331	0.482330322265625
5635.87555777078	0.482452392578125
5636.87555776826	0.48248291015625
5637.87555776573	0.48248291015625
5638.87555776321	0.482452392578125
5639.87555776068	0.48248291015625
5640.87555775816	0.48248291015625
5641.87555775563	0.482513427734375
5642.87555775311	0.4825439453125
5643.87555775058	0.482574462890625
5644.87555774806	0.482574462890625
5645.87555774553	0.48260498046875
5646.87555774301	0.482666015625
5647.87555774048	0.482696533203125
5648.87555773796	0.482696533203125
5649.87555773543	0.48272705078125
5650.87555773291	0.482757568359375
5651.87555773039	0.482696533203125
5652.87555772786	0.482696533203125
5653.87555772534	0.48272705078125
5654.87555772281	0.48272705078125
5655.87555772029	0.48272705078125
5656.87555771776	0.48272705078125
5657.87555771524	0.48272705078125
5658.87555771271	0.482757568359375
