Time (s)	WE(1).Potential (V)
5885.34204514094	0.46575927734375
5886.34204513842	0.453155517578125
5887.34204513589	0.443817138671875
5888.34204513337	0.436981201171875
5889.34204513084	0.432037353515625
5890.34204512832	0.428558349609375
5891.34204512579	0.426177978515625
5892.34204512327	0.42462158203125
5893.34204512074	0.423675537109375
5894.34204511822	0.42327880859375
5895.34204511569	0.4232177734375
5896.34204511317	0.423431396484375
5897.34204511064	0.423858642578125
5898.34204510812	0.424468994140625
5899.34204510559	0.425201416015625
5900.34204510307	0.425994873046875
5901.34204510054	0.426849365234375
5902.34204509802	0.427703857421875
5903.34204509549	0.428619384765625
5904.34204509297	0.4295654296875
5905.34204509045	0.43048095703125
5906.34204508792	0.431396484375
5907.3420450854	0.43231201171875
5908.34204508287	0.433258056640625
5909.34204508035	0.434173583984375
5910.34204507782	0.435089111328125
5911.3420450753	0.436004638671875
5912.34204507277	0.436859130859375
5913.34204507025	0.437713623046875
5914.34204506772	0.438568115234375
5915.3420450652	0.43939208984375
5916.34204506267	0.440185546875
5917.34204506015	0.44097900390625
5918.34204505762	0.4417724609375
5919.3420450551	0.4425048828125
5920.34204505257	0.443206787109375
5921.34204505005	0.44390869140625
5922.34204504752	0.444549560546875
5923.342045045	0.445220947265625
5924.34204504247	0.445831298828125
5925.34204503995	0.44647216796875
5926.34204503743	0.447113037109375
5927.3420450349	0.447723388671875
5928.34204503238	0.448333740234375
5929.34204502985	0.448944091796875
5930.34204502733	0.449462890625
5931.3420450248	0.449951171875
5932.34204502228	0.450439453125
5933.34204501975	0.450927734375
5934.34204501723	0.451385498046875
5935.3420450147	0.451873779296875
5936.34204501218	0.45233154296875
5937.34204500965	0.4527587890625
5938.34204500713	0.45318603515625
5939.3420450046	0.453643798828125
5940.34204500208	0.454071044921875
5941.34204499955	0.4544677734375
5942.34204499703	0.454864501953125
5943.3420449945	0.455230712890625
5944.34204499198	0.45556640625
5945.34204498945	0.455902099609375
5946.34204498693	0.45623779296875
5947.34204498441	0.45654296875
5948.34204498188	0.456787109375
5949.34204497936	0.457061767578125
5950.34204497683	0.45733642578125
5951.34204497431	0.457611083984375
5952.34204497178	0.4578857421875
5953.34204496926	0.458099365234375
5954.34204496673	0.458343505859375
5955.34204496421	0.45855712890625
5956.34204496168	0.45880126953125
5957.34204495916	0.458984375
5958.34204495663	0.459197998046875
5959.34204495411	0.459442138671875
5960.34204495158	0.459625244140625
5961.34204494906	0.459808349609375
5962.34204494653	0.459991455078125
5963.34204494401	0.46014404296875
5964.34204494148	0.46026611328125
5965.34204493896	0.46044921875
5966.34204493643	0.460601806640625
5967.34204493391	0.460723876953125
5968.34204493139	0.460906982421875
5969.34204492886	0.461029052734375
5970.34204492634	0.461181640625
5971.34204492381	0.4613037109375
5972.34204492129	0.46142578125
5973.34204491876	0.4615478515625
5974.34204491624	0.461669921875
5975.34204491371	0.4617919921875
5976.34204491119	0.461944580078125
5977.34204490866	0.4620361328125
5978.34204490614	0.46209716796875
5979.34204490361	0.46221923828125
5980.34204490109	0.462310791015625
5981.34204489856	0.462371826171875
5982.34204489604	0.462493896484375
5983.34204489351	0.462554931640625
5984.34204489099	0.462677001953125
5985.34204488846	0.4627685546875
5986.34204488594	0.46282958984375
5987.34204488341	0.462921142578125
5988.34204488089	0.4630126953125
5989.34204487837	0.46307373046875
5990.34204487584	0.463165283203125
5991.34204487332	0.46319580078125
5992.34204487079	0.463287353515625
5993.34204486827	0.463348388671875
5994.34204486574	0.46343994140625
5995.34204486322	0.463531494140625
5996.34204486069	0.463592529296875
5997.34204485817	0.463653564453125
5998.34204485564	0.463714599609375
5999.34204485312	0.463775634765625
6000.34204485059	0.46380615234375
6001.34204484807	0.4638671875
6002.34204484554	0.46392822265625
6003.34204484302	0.463958740234375
6004.34204484049	0.4639892578125
6005.34204483797	0.464019775390625
6006.34204483544	0.464080810546875
6007.34204483292	0.464111328125
6008.3420448304	0.46417236328125
6009.34204482787	0.4642333984375
6010.34204482535	0.464263916015625
6011.34204482282	0.46429443359375
6012.3420448203	0.464324951171875
6013.34204481777	0.46435546875
6014.34204481525	0.464385986328125
6015.34204481272	0.46441650390625
6016.3420448102	0.464447021484375
6017.34204480767	0.4644775390625
6018.34204480515	0.464508056640625
6019.34204480262	0.4644775390625
6020.3420448001	0.464508056640625
6021.34204479757	0.464508056640625
6022.34204479505	0.46453857421875
6023.34204479252	0.46453857421875
6024.34204479	0.464599609375
6025.34204478747	0.464599609375
6026.34204478495	0.46466064453125
6027.34204478242	0.46466064453125
6028.3420447799	0.464691162109375
6029.34204477738	0.464752197265625
6030.34204477485	0.464752197265625
6031.34204477233	0.464813232421875
6032.3420447698	0.464874267578125
6033.34204476728	0.46490478515625
6034.34204476475	0.4649658203125
6035.34204476223	0.464996337890625
6036.3420447597	0.465057373046875
6037.34204475718	0.465118408203125
6038.34204475465	0.46514892578125
6039.34204475213	0.465179443359375
6040.3420447496	0.465179443359375
6041.34204474708	0.4652099609375
6042.34204474455	0.465240478515625
6043.34204474203	0.46527099609375
6044.3420447395	0.46533203125
6045.34204473698	0.465362548828125
6046.34204473445	0.46539306640625
6047.34204473193	0.4654541015625
6048.3420447294	0.4654541015625
6049.34204472688	0.4654541015625
6050.34204472436	0.465484619140625
6051.34204472183	0.465484619140625
6052.34204471931	0.465484619140625
6053.34204471678	0.46551513671875
6054.34204471426	0.465545654296875
6055.34204471173	0.465576171875
6056.34204470921	0.46563720703125
6057.34204470668	0.46563720703125
6058.34204470416	0.4656982421875
6059.34204470163	0.465728759765625
6060.34204469911	0.46575927734375
6061.34204469658	0.465789794921875
6062.34204469406	0.4658203125
6063.34204469153	0.465850830078125
6064.34204468901	0.465850830078125
