Time (s)	WE(1).Potential (V)
3.59277099092913	0.46405029296875
4.59277098840437	0.464202880859375
5.59277098587961	0.46435546875
6.59277098335485	0.46453857421875
7.5927709808301	0.464691162109375
8.59277097830534	0.464813232421875
9.59277097578058	0.4649658203125
10.5927709732558	0.465118408203125
11.5927709707311	0.46527099609375
12.5927709682063	0.465423583984375
13.5927709656816	0.465576171875
14.5927709631568	0.465728759765625
15.592770960632	0.46588134765625
16.5927709581073	0.46600341796875
17.5927709555825	0.466156005859375
18.5927709530578	0.46630859375
19.592770950533	0.4664306640625
20.5927709480083	0.466583251953125
21.5927709454835	0.46673583984375
22.5927709429587	0.46685791015625
23.592770940434	0.467010498046875
24.5927709379092	0.467132568359375
25.5927709353845	0.46728515625
26.5927709328597	0.4674072265625
27.592770930335	0.467559814453125
28.5927709278102	0.46771240234375
29.5927709252854	0.46783447265625
30.5927709227607	0.46795654296875
31.5927709202359	0.468109130859375
32.5927709177112	0.468231201171875
33.5927709151864	0.4683837890625
34.5927709126616	0.468505859375
35.5927709101369	0.468658447265625
36.5927709076121	0.468780517578125
37.5927709050874	0.468902587890625
38.5927709025626	0.46905517578125
39.5927709000379	0.46917724609375
40.5927708975131	0.469329833984375
41.5927708949883	0.469482421875
42.5927708924636	0.4696044921875
43.5927708899388	0.4697265625
44.5927708874141	0.4698486328125
45.5927708848893	0.469970703125
46.5927708823646	0.4700927734375
47.5927708798398	0.47021484375
48.592770877315	0.4703369140625
49.5927708747903	0.470458984375
50.5927708722655	0.470611572265625
51.5927708697408	0.470733642578125
52.592770867216	0.470855712890625
53.5927708646913	0.470977783203125
54.5927708621665	0.471099853515625
55.5927708596417	0.47119140625
56.592770857117	0.4713134765625
57.5927708545922	0.471435546875
58.5927708520675	0.4715576171875
59.5927708495427	0.4716796875
60.592770847018	0.4718017578125
61.5927708444932	0.471923828125
62.5927708419684	0.4720458984375
63.5927708394437	0.472137451171875
64.5927708369189	0.472259521484375
65.5927708343942	0.472381591796875
66.5927708318694	0.472503662109375
67.5927708293447	0.472625732421875
68.5927708268199	0.47271728515625
69.5927708242951	0.47283935546875
70.5927708217704	0.47296142578125
71.5927708192456	0.47308349609375
72.5927708167209	0.473175048828125
73.5927708141961	0.473297119140625
74.5927708116714	0.473419189453125
75.5927708091466	0.4735107421875
76.5927708066218	0.4736328125
77.5927708040971	0.473724365234375
78.5927708015723	0.473846435546875
79.5927707990476	0.473968505859375
80.5927707965228	0.47406005859375
81.5927707939981	0.47418212890625
82.5927707914733	0.474273681640625
83.5927707889485	0.474212646484375
84.5927707864238	0.474273681640625
85.592770783899	0.474365234375
86.5927707813743	0.4744873046875
87.5927707788495	0.474609375
88.5927707763248	0.474700927734375
89.5927707738	0.474822998046875
90.5927707712752	0.474945068359375
91.5927707687505	0.47503662109375
92.5927707662257	0.47515869140625
93.592770763701	0.475250244140625
94.5927707611762	0.475372314453125
95.5927707586515	0.475494384765625
96.5927707561267	0.475616455078125
97.5927707536019	0.4757080078125
98.5927707510772	0.475799560546875
99.5927707485524	0.475921630859375
100.592770746028	0.47601318359375
101.592770743503	0.47613525390625
102.592770740978	0.476226806640625
103.592770738453	0.476318359375
104.592770735929	0.4764404296875
105.592770733404	0.476531982421875
106.592770730879	0.47662353515625
107.592770728354	0.47674560546875
108.59277072583	0.476837158203125
109.592770723305	0.4769287109375
110.59277072078	0.47705078125
111.592770718255	0.477142333984375
112.592770715731	0.47723388671875
113.592770713206	0.477325439453125
114.592770710681	0.477447509765625
115.592770708156	0.4775390625
116.592770705632	0.477630615234375
117.592770703107	0.47772216796875
118.592770700582	0.477813720703125
119.592770698057	0.4779052734375
120.592770695533	0.477996826171875
121.592770693008	0.478118896484375
122.592770690483	0.47821044921875
123.592770687958	0.478302001953125
124.592770685433	0.4783935546875
125.592770682909	0.478485107421875
126.592770680384	0.47857666015625
127.592770677859	0.478668212890625
128.592770675334	0.478790283203125
129.59277067281	0.4788818359375
130.592770670285	0.478973388671875
131.59277066776	0.47906494140625
132.592770665235	0.479156494140625
133.592770662711	0.479248046875
134.592770660186	0.479339599609375
135.592770657661	0.47943115234375
136.592770655136	0.479522705078125
137.592770652612	0.479644775390625
138.592770650087	0.479705810546875
139.592770647562	0.47979736328125
140.592770645037	0.479888916015625
141.592770642513	0.47998046875
142.592770639988	0.480072021484375
143.592770637463	0.48016357421875
144.592770634938	0.480255126953125
145.592770632414	0.4803466796875
146.592770629889	0.480438232421875
147.592770627364	0.48052978515625
148.592770624839	0.480621337890625
149.592770622315	0.480712890625
150.59277061979	0.480804443359375
151.592770617265	0.48089599609375
152.59277061474	0.480987548828125
153.592770612216	0.4810791015625
154.592770609691	0.481170654296875
155.592770607166	0.48126220703125
156.592770604641	0.4813232421875
157.592770602117	0.481414794921875
158.592770599592	0.48150634765625
159.592770597067	0.481597900390625
160.592770594542	0.481689453125
161.592770592017	0.481781005859375
162.592770589493	0.481842041015625
163.592770586968	0.48193359375
164.592770584443	0.482025146484375
165.592770581918	0.48211669921875
166.592770579394	0.482208251953125
167.592770576869	0.482269287109375
168.592770574344	0.48236083984375
169.592770571819	0.482452392578125
170.592770569295	0.4825439453125
171.59277056677	0.482635498046875
172.592770564245	0.48272705078125
173.59277056172	0.48284912109375
174.592770559196	0.482940673828125
175.592770556671	0.4830322265625
176.592770554146	0.483154296875
177.592770551621	0.483245849609375
178.592770549097	0.483367919921875
179.592770546572	0.48345947265625
180.592770544047	0.48358154296875
181.592770541522	0.48370361328125
182.592770538998	0.483795166015625
