Time (s)	WE(1).Potential (V)
3017.12495638249	0.039031982421875
3018.12495637997	0.057525634765625
3019.12495637744	0.07403564453125
3020.12495637492	0.089141845703125
3021.12495637239	0.102996826171875
3022.12495636987	0.11572265625
3023.12495636734	0.12738037109375
3024.12495636482	0.13824462890625
3025.12495636229	0.148284912109375
3026.12495635977	0.157562255859375
3027.12495635724	0.166168212890625
3028.12495635472	0.1741943359375
3029.12495635219	0.181640625
3030.12495634967	0.18853759765625
3031.12495634715	0.195098876953125
3032.12495634462	0.20123291015625
3033.1249563421	0.206939697265625
3034.12495633957	0.21234130859375
3035.12495633705	0.217437744140625
3036.12495633452	0.222320556640625
3037.124956332	0.2269287109375
3038.12495632947	0.231353759765625
3039.12495632695	0.23553466796875
3040.12495632442	0.239532470703125
3041.1249563219	0.24334716796875
3042.12495631937	0.247100830078125
3043.12495631685	0.250762939453125
3044.12495631432	0.25433349609375
3045.1249563118	0.2576904296875
3046.12495630927	0.260955810546875
3047.12495630675	0.264190673828125
3048.12495630422	0.267364501953125
3049.1249563017	0.27044677734375
3050.12495629917	0.273468017578125
3051.12495629665	0.2764892578125
3052.12495629413	0.27947998046875
3053.1249562916	0.282440185546875
3054.12495628908	0.28533935546875
3055.12495628655	0.288238525390625
3056.12495628403	0.291107177734375
3057.1249562815	0.293975830078125
3058.12495627898	0.29681396484375
3059.12495627645	0.2996826171875
3060.12495627393	0.302581787109375
3061.1249562714	0.30548095703125
3062.12495626888	0.308380126953125
3063.12495626635	0.311279296875
3064.12495626383	0.314300537109375
3065.1249562613	0.31732177734375
3066.12495625878	0.320343017578125
3067.12495625625	0.323455810546875
3068.12495625373	0.326751708984375
3069.1249562512	0.329986572265625
3070.12495624868	0.3333740234375
3071.12495624615	0.336883544921875
3072.12495624363	0.3404541015625
3073.12495624111	0.344085693359375
3074.12495623858	0.3477783203125
3075.12495623606	0.3515625
3076.12495623353	0.355377197265625
3077.12495623101	0.359161376953125
3078.12495622848	0.363189697265625
3079.12495622596	0.36749267578125
3080.12495622343	0.37164306640625
3081.12495622091	0.375823974609375
3082.12495621838	0.380096435546875
3083.12495621586	0.384307861328125
3084.12495621333	0.3885498046875
3085.12495621081	0.392791748046875
3086.12495620828	0.397003173828125
3087.12495620576	0.40118408203125
3088.12495620323	0.4053955078125
3089.12495620071	0.409637451171875
3090.12495619818	0.413787841796875
3091.12495619566	0.41790771484375
3092.12495619313	0.422027587890625
3093.12495619061	0.42620849609375
3094.12495618809	0.43035888671875
3095.12495618556	0.434478759765625
3096.12495618304	0.4385986328125
3097.12495618051	0.44281005859375
3098.12495617799	0.447021484375
3099.12495617546	0.4512939453125
3100.12495617294	0.455596923828125
3101.12495617041	0.45989990234375
3102.12495616789	0.464263916015625
3103.12495616536	0.468658447265625
3104.12495616284	0.47308349609375
3105.12495616031	0.477508544921875
3106.12495615779	0.481964111328125
3107.12495615526	0.486480712890625
3108.12495615274	0.490997314453125
3109.12495615021	0.4954833984375
3110.12495614769	0.50018310546875
3111.12495614516	0.5047607421875
3112.12495614264	0.509033203125
3113.12495614012	0.51361083984375
3114.12495613759	0.51788330078125
3115.12495613507	0.5224609375
3116.12495613254	0.5267333984375
3117.12495613002	0.53070068359375
3118.12495612749	0.53466796875
3119.12495612497	0.53863525390625
3120.12495612244	0.54229736328125
3121.12495611992	0.545654296875
3122.12495611739	0.5487060546875
3123.12495611487	0.55206298828125
3124.12495611234	0.5548095703125
3125.12495610982	0.55755615234375
3126.12495610729	0.560302734375
3127.12495610477	0.56243896484375
3128.12495610224	0.56488037109375
3129.12495609972	0.5670166015625
3130.12495609719	0.56884765625
3131.12495609467	0.5706787109375
3132.12495609214	0.572509765625
3133.12495608962	0.57403564453125
3134.1249560871	0.57525634765625
3135.12495608457	0.5767822265625
3136.12495608205	0.5780029296875
3137.12495607952	0.5792236328125
3138.124956077	0.5804443359375
3139.12495607447	0.5816650390625
3140.12495607195	0.58258056640625
3141.12495606942	0.58349609375
3142.1249560669	0.58441162109375
3143.12495606437	0.5853271484375
3144.12495606185	0.58624267578125
3145.12495605932	0.58685302734375
3146.1249560568	0.5877685546875
3147.12495605427	0.58837890625
3148.12495605175	0.5889892578125
3149.12495604922	0.589599609375
3150.1249560467	0.5902099609375
3151.12495604417	0.5908203125
3152.12495604165	0.59112548828125
3153.12495603912	0.59173583984375
3154.1249560366	0.59234619140625
3155.12495603408	0.59295654296875
3156.12495603155	0.59326171875
3157.12495602903	0.59356689453125
3158.1249560265	0.5938720703125
3159.12495602398	0.594482421875
3160.12495602145	0.59478759765625
3161.12495601893	0.5950927734375
3162.1249560164	0.59539794921875
3163.12495601388	0.595703125
3164.12495601135	0.59600830078125
3165.12495600883	0.5963134765625
3166.1249560063	0.59661865234375
3167.12495600378	0.59722900390625
3168.12495600125	0.59722900390625
3169.12495599873	0.5975341796875
3170.1249559962	0.59783935546875
3171.12495599368	0.59814453125
3172.12495599115	0.59814453125
3173.12495598863	0.59844970703125
3174.1249559861	0.5987548828125
3175.12495598358	0.5987548828125
3176.12495598106	0.59906005859375
3177.12495597853	0.599365234375
3178.12495597601	0.599365234375
3179.12495597348	0.59967041015625
3180.12495597096	0.5999755859375
3181.12495596843	0.5999755859375
3182.12495596591	0.60028076171875
3183.12495596338	0.6005859375
3184.12495596086	0.6005859375
3185.12495595833	0.60089111328125
3186.12495595581	0.60089111328125
3187.12495595328	0.6011962890625
3188.12495595076	0.6011962890625
3189.12495594823	0.60150146484375
3190.12495594571	0.60150146484375
3191.12495594318	0.601806640625
3192.12495594066	0.6024169921875
3193.12495593813	0.6024169921875
3194.12495593561	0.60272216796875
3195.12495593308	0.60302734375
3196.12495593056	0.60333251953125
