Time (s)	WE(1).Potential (V)
2.03921899485147	0.51727294921875
3.03921899232671	0.517578125
4.03921898980195	0.51788330078125
5.0392189872772	0.51849365234375
6.03921898475244	0.518798828125
7.03921898222768	0.51910400390625
8.03921897970292	0.51971435546875
9.03921897717817	0.52001953125
10.0392189746534	0.52032470703125
11.0392189721287	0.5206298828125
12.0392189696039	0.52093505859375
13.0392189670791	0.521240234375
14.0392189645544	0.52154541015625
15.0392189620296	0.5218505859375
16.0392189595049	0.52215576171875
17.0392189569801	0.5224609375
18.0392189544554	0.52276611328125
19.0392189519306	0.5230712890625
20.0392189494058	0.52337646484375
21.0392189468811	0.52337646484375
22.0392189443563	0.523681640625
23.0392189418316	0.523681640625
24.0392189393068	0.52398681640625
25.039218936782	0.523681640625
26.0392189342573	0.52337646484375
27.0392189317325	0.52276611328125
28.0392189292078	0.52215576171875
29.039218926683	0.5218505859375
30.0392189241583	0.52154541015625
31.0392189216335	0.521240234375
32.0392189191087	0.521240234375
33.039218916584	0.52093505859375
34.0392189140592	0.5206298828125
35.0392189115345	0.52001953125
36.0392189090097	0.518798828125
37.039218906485	0.51727294921875
38.0392189039602	0.5157470703125
39.0392189014354	0.51361083984375
40.0392188989107	0.51177978515625
41.0392188963859	0.50933837890625
42.0392188938612	0.5078125
43.0392188913364	0.50628662109375
44.0392188888117	0.5047607421875
45.0392188862869	0.5047607421875
46.0392188837621	0.50537109375
47.0392188812374	0.5059814453125
48.0392188787126	0.506591796875
49.0392188761879	0.5072021484375
50.0392188736631	0.5078125
51.0392188711384	0.5084228515625
52.0392188686136	0.509033203125
53.0392188660888	0.5096435546875
54.0392188635641	0.50994873046875
55.0392188610393	0.51055908203125
56.0392188585146	0.5108642578125
57.0392188559898	0.511474609375
58.0392188534651	0.5120849609375
59.0392188509403	0.51239013671875
60.0392188484155	0.5126953125
61.0392188458908	0.5133056640625
62.039218843366	0.51361083984375
63.0392188408413	0.51422119140625
64.0392188383165	0.5145263671875
65.0392188357918	0.51513671875
66.039218833267	0.5157470703125
67.0392188307422	0.51605224609375
68.0392188282175	0.516357421875
69.0392188256927	0.5169677734375
70.039218823168	0.51727294921875
71.0392188206432	0.51788330078125
72.0392188181185	0.5181884765625
73.0392188155937	0.51849365234375
74.0392188130689	0.518798828125
75.0392188105442	0.5194091796875
76.0392188080194	0.51971435546875
77.0392188054947	0.52032470703125
78.0392188029699	0.5206298828125
79.0392188004452	0.52093505859375
80.0392187979204	0.521240234375
81.0392187953956	0.5218505859375
82.0392187928709	0.52215576171875
83.0392187903461	0.5224609375
84.0392187878214	0.52276611328125
85.0392187852966	0.5230712890625
86.0392187827719	0.52337646484375
87.0392187802471	0.523681640625
88.0392187777223	0.5242919921875
89.0392187751976	0.52459716796875
90.0392187726728	0.52490234375
91.0392187701481	0.52520751953125
92.0392187676233	0.5255126953125
93.0392187650986	0.52581787109375
94.0392187625738	0.526123046875
95.039218760049	0.5267333984375
96.0392187575243	0.52703857421875
97.0392187549995	0.52734375
98.0392187524748	0.52764892578125
99.03921874995	0.5279541015625
100.039218747425	0.52825927734375
101.0392187449	0.528564453125
102.039218742376	0.52886962890625
103.039218739851	0.5291748046875
104.039218737326	0.52947998046875
105.039218734801	0.53009033203125
106.039218732277	0.5303955078125
107.039218729752	0.53070068359375
108.039218727227	0.531005859375
109.039218724702	0.53131103515625
110.039218722178	0.5316162109375
111.039218719653	0.5316162109375
112.039218717128	0.53192138671875
113.039218714603	0.5322265625
114.039218712079	0.53253173828125
115.039218709554	0.5328369140625
116.039218707029	0.53314208984375
117.039218704504	0.533447265625
118.03921870198	0.53375244140625
119.039218699455	0.5340576171875
120.03921869693	0.53436279296875
121.039218694405	0.53466796875
122.039218691881	0.53497314453125
123.039218689356	0.5352783203125
124.039218686831	0.53558349609375
125.039218684306	0.53558349609375
126.039218681782	0.535888671875
127.039218679257	0.53619384765625
128.039218676732	0.5364990234375
129.039218674207	0.53680419921875
130.039218671683	0.537109375
131.039218669158	0.537109375
132.039218666633	0.53741455078125
133.039218664108	0.5377197265625
134.039218661584	0.5377197265625
135.039218659059	0.538330078125
136.039218656534	0.538330078125
137.039218654009	0.53863525390625
138.039218651484	0.5389404296875
139.03921864896	0.53924560546875
140.039218646435	0.53955078125
141.03921864391	0.53955078125
142.039218641385	0.53985595703125
143.039218638861	0.5401611328125
144.039218636336	0.54046630859375
145.039218633811	0.540771484375
146.039218631286	0.540771484375
147.039218628762	0.54107666015625
148.039218626237	0.5413818359375
149.039218623712	0.54168701171875
150.039218621187	0.54168701171875
151.039218618663	0.5419921875
152.039218616138	0.54229736328125
153.039218613613	0.54229736328125
154.039218611088	0.5426025390625
155.039218608564	0.54290771484375
156.039218606039	0.543212890625
157.039218603514	0.543212890625
158.039218600989	0.54351806640625
159.039218598465	0.5438232421875
160.03921859594	0.5438232421875
161.039218593415	0.54412841796875
162.03921859089	0.54443359375
163.039218588366	0.54473876953125
164.039218585841	0.54473876953125
165.039218583316	0.5450439453125
166.039218580791	0.54534912109375
167.039218578267	0.54534912109375
168.039218575742	0.545654296875
169.039218573217	0.54595947265625
170.039218570692	0.54595947265625
171.039218568167	0.5462646484375
172.039218565643	0.5462646484375
173.039218563118	0.54656982421875
174.039218560593	0.546875
175.039218558068	0.54718017578125
176.039218555544	0.54718017578125
177.039218553019	0.5474853515625
178.039218550494	0.54779052734375
179.039218547969	0.54779052734375
180.039218545445	0.548095703125
181.03921854292	0.548095703125
