Time (s)	WE(1).Potential (V)	WE(1).Current (A)
30.4969309230027	0.028045654296875	2.960205078125E-08
30.6190009226945	0.0299896240234375	2.410888671875E-08
30.7410709223863	0.0329071044921875	3.326416015625E-08
30.8631409220781	0.0346282958984375	4.425048828125E-08
30.9852109217699	0.037786865234375	4.3609619140625E-08
31.1072809214617	0.03953857421875	3.4271240234375E-08
31.2293509211535	0.0428466796875	5.3863525390625E-08
31.3514209208453	0.0454986572265625	5.0506591796875E-08
31.4734909205371	0.0472900390625	5.01708984375E-08
31.5955609202289	0.05084228515625	4.901123046875E-08
31.7176309199207	0.0523681640625	4.3121337890625E-08
31.8397009196125	0.05389404296875	3.7994384765625E-08
31.9617709193043	0.057098388671875	4.9285888671875E-08
32.0838409189961	0.059112548828125	5.169677734375E-08
32.2059109186879	0.060791015625	4.2205810546875E-08
32.3279809183797	0.065399169921875	5.419921875E-08
32.4500509180715	0.06591796875	4.779052734375E-08
32.5721209177633	0.067352294921875	4.742431640625E-08
32.6941909174551	0.072784423828125	5.0689697265625E-08
32.8162609171469	0.073028564453125	4.656982421875E-08
32.9383309168387	0.073638916015625	4.30908203125E-08
33.0604009165305	0.07843017578125	5.6854248046875E-08
33.1824709162223	0.081146240234375	5.3192138671875E-08
33.3045409159141	0.08233642578125	4.5074462890625E-08
33.4266109156059	0.083465576171875	4.833984375E-08
33.5486809152977	0.0887451171875	5.023193359375E-08
33.6707509149895	0.088958740234375	5.2764892578125E-08
33.7928209146813	0.091827392578125	4.644775390625E-08
33.9148909143731	0.09588623046875	5.55419921875E-08
34.0369609140649	0.09698486328125	5.029296875E-08
34.1590309137567	0.100433349609375	6.11572265625E-08
34.2811009134485	0.10369873046875	6.304931640625E-08
34.4031709131403	0.1048583984375	5.5145263671875E-08
34.5252409128321	0.10821533203125	6.549072265625E-08
34.6473109125239	0.1116943359375	6.7535400390625E-08
34.7693809122158	0.110992431640625	4.8431396484375E-08
34.8914509119076	0.11578369140625	6.109619140625E-08
35.0135209115994	0.119140625	6.292724609375E-08
35.1355909112912	0.120330810546875	6.201171875E-08
35.257660910983	0.122711181640625	6.11572265625E-08
35.3797309106748	0.12701416015625	6.3507080078125E-08
35.5018009103666	0.12786865234375	6.402587890625E-08
35.6238709100584	0.130218505859375	5.9326171875E-08
35.7459409097502	0.134429931640625	7.2021484375E-08
35.868010909442	0.137237548828125	6.93359375E-08
35.9900809091338	0.13739013671875	6.536865234375E-08
36.1121509088256	0.14141845703125	7.3577880859375E-08
36.2342209085174	0.143280029296875	6.903076171875E-08
36.3562909082092	0.144561767578125	6.3262939453125E-08
36.478360907901	0.148162841796875	6.695556640625E-08
36.6004309075928	0.14984130859375	6.5673828125E-08
36.7225009072846	0.1512451171875	6.2652587890625E-08
36.8445709069764	0.15447998046875	7.379150390625E-08
36.9666409066682	0.156524658203125	7.3150634765625E-08
37.08871090636	0.15777587890625	6.57958984375E-08
37.2107809060518	0.163116455078125	7.1929931640625E-08
37.3328509057436	0.1636962890625	6.0760498046875E-08
37.4549209054354	0.16522216796875	6.3262939453125E-08
37.5769909051272	0.170989990234375	7.3516845703125E-08
37.699060904819	0.171356201171875	6.964111328125E-08
37.8211309045108	0.171661376953125	6.561279296875E-08
37.9432009042026	0.17694091796875	6.9793701171875E-08
38.0652709038944	0.17822265625	7.147216796875E-08
38.1873409035862	0.178741455078125	6.4788818359375E-08
38.309410903278	0.182769775390625	7.4493408203125E-08
38.4314809029698	0.186370849609375	7.0343017578125E-08
38.5535509026616	0.187347412109375	5.9478759765625E-08
38.6756209023534	0.18951416015625	6.5277099609375E-08
38.7976909020452	0.19268798828125	7.5042724609375E-08
38.9197609017371	0.19354248046875	7.18994140625E-08
39.0418309014289	0.195281982421875	6.707763671875E-08
39.1639009011207	0.201263427734375	7.1258544921875E-08
39.2859709008125	0.201141357421875	7.0648193359375E-08
39.4080409005043	0.2044677734375	6.744384765625E-08
39.5301109001961	0.208709716796875	7.7880859375E-08
39.6521808998879	0.209197998046875	6.8939208984375E-08
39.7742508995797	0.212982177734375	8.36181640625E-08
39.8963208992715	0.21563720703125	8.0169677734375E-08
40.0183908989633	0.21697998046875	7.91015625E-08
40.1404608986551	0.220367431640625	8.453369140625E-08
40.2625308983469	0.22296142578125	8.16650390625E-08
40.3846008980387	0.223541259765625	7.818603515625E-08
40.5066708977305	0.227294921875	8.38623046875E-08
40.6287408974223	0.230621337890625	8.1756591796875E-08
40.7508108971141	0.23089599609375	7.67822265625E-08
40.8728808968059	0.23553466796875	9.173583984375E-08
40.9949508964977	0.238067626953125	8.6700439453125E-08
41.1170208961895	0.2392578125	8.3343505859375E-08
41.2390908958813	0.24212646484375	9.027099609375E-08
41.3611608955731	0.24676513671875	9.6771240234375E-08
41.4832308952649	0.2471923828125	9.136962890625E-08
41.6053008949567	0.24951171875	8.966064453125E-08
41.7273708946485	0.253814697265625	1.02325439453125E-07
41.8494408943403	0.2559814453125	9.7808837890625E-08
41.9715108940321	0.256927490234375	9.674072265625E-08
42.0935808937239	0.260406494140625	1.05682373046875E-07
42.2156508934157	0.2637939453125	1.07513427734375E-07
42.3377208931075	0.2635498046875	9.735107421875E-08
42.4597908927993	0.268798828125	1.05621337890625E-07
42.5818608924911	0.271697998046875	1.11236572265625E-07
42.7039308921829	0.27099609375	9.564208984375E-08
42.8260008918747	0.27532958984375	1.09832763671875E-07
42.9480708915665	0.276519775390625	1.12152099609375E-07
43.0701408912583	0.2779541015625	1.05987548828125E-07
43.1922108909502	0.281494140625	1.0931396484375E-07
43.314280890642	0.28363037109375	1.11358642578125E-07
43.4363508903338	0.285125732421875	1.097412109375E-07
43.5584208900256	0.2890625	1.17889404296875E-07
43.6804908897174	0.290679931640625	1.1444091796875E-07
43.8025608894092	0.292266845703125	1.1083984375E-07
43.924630889101	0.29681396484375	1.15478515625E-07
44.0467008887928	0.29779052734375	1.1077880859375E-07
44.1687708884846	0.298370361328125	1.10260009765625E-07
44.2908408881764	0.30462646484375	1.26007080078125E-07
44.4129108878682	0.304718017578125	1.17950439453125E-07
44.53498088756	0.305877685546875	1.1590576171875E-07
44.6570508872518	0.310821533203125	1.2725830078125E-07
44.7791208869436	0.3128662109375	1.18011474609375E-07
44.9011908866354	0.312744140625	1.14288330078125E-07
45.0232608863272	0.316864013671875	1.26312255859375E-07
45.145330886019	0.3197021484375	1.23565673828125E-07
45.2674008857108	0.321624755859375	1.1541748046875E-07
45.3894708854026	0.32269287109375	1.23626708984375E-07
45.5115408850944	0.327789306640625	1.29669189453125E-07
45.6336108847862	0.327728271484375	1.2469482421875E-07
45.755680884478	0.329376220703125	1.2322998046875E-07
45.8777508841698	0.3349609375	1.2664794921875E-07
45.9998208838616	0.33538818359375	1.31683349609375E-07
46.1218908835534	0.337249755859375	1.21490478515625E-07
46.2439608832452	0.341705322265625	1.3104248046875E-07
46.366030882937	0.343505859375	1.26922607421875E-07
46.4881008826288	0.3472900390625	1.28570556640625E-07
46.6101708823206	0.349853515625	1.37451171875E-07
46.7322408820124	0.349609375	1.16546630859375E-07
46.8543108817042	0.35357666015625	1.2548828125E-07
46.976380881396	0.35723876953125	1.3580322265625E-07
47.0984508810878	0.359161376953125	1.28631591796875E-07
47.2205208807796	0.361907958984375	1.3995361328125E-07
47.3425908804714	0.365020751953125	1.39007568359375E-07
47.4646608801633	0.3641357421875	1.2945556640625E-07
47.5867308798551	0.369415283203125	1.34613037109375E-07
47.7088008795469	0.371826171875	1.4556884765625E-07
47.8308708792387	0.371978759765625	1.32659912109375E-07
47.9529408789305	0.376068115234375	1.3836669921875E-07
48.0750108786223	0.37957763671875	1.439208984375E-07
48.1970808783141	0.38134765625	1.3812255859375E-07
48.3191508780059	0.3837890625	1.422119140625E-07
48.4412208776977	0.387939453125	1.4617919921875E-07
48.5632908773895	0.388275146484375	1.36505126953125E-07
48.6853608770813	0.391082763671875	1.45904541015625E-07
48.8074308767731	0.394805908203125	1.46240234375E-07
48.9295008764649	0.3974609375	1.4593505859375E-07
49.0515708761567	0.39752197265625	1.485595703125E-07
49.1736408758485	0.402679443359375	1.49200439453125E-07
49.2957108755403	0.405487060546875	1.49383544921875E-07
49.4177808752321	0.405731201171875	1.41571044921875E-07
49.5398508749239	0.408843994140625	1.54144287109375E-07
49.6619208746157	0.410308837890625	1.55426025390625E-07
49.7839908743075	0.41217041015625	1.451416015625E-07
49.9060608739993	0.416046142578125	1.502685546875E-07
50.0281308736911	0.417510986328125	1.51153564453125E-07
50.1502008733829	0.41973876953125	1.446533203125E-07
50.2722708730747	0.422821044921875	1.51763916015625E-07
50.3943408727665	0.425048828125	1.41998291015625E-07
50.5164108724583	0.42620849609375	1.41998291015625E-07
50.6384808721501	0.429840087890625	1.4129638671875E-07
50.7605508718419	0.43133544921875	1.4056396484375E-07
50.8826208715337	0.43341064453125	1.39007568359375E-07
51.0046908712255	0.438812255859375	1.5203857421875E-07
51.1267608709173	0.43927001953125	1.42333984375E-07
51.2488308706091	0.440185546875	1.4910888671875E-07
51.3709008703009	0.44500732421875	1.50482177734375E-07
51.4929708699927	0.446502685546875	1.48284912109375E-07
51.6150408696845	0.44683837890625	1.4703369140625E-07
51.7371108693764	0.452423095703125	1.5496826171875E-07
51.8591808690682	0.453643798828125	1.52618408203125E-07
51.98125086876	0.45458984375	1.41143798828125E-07
52.1033208684518	0.45831298828125	1.4837646484375E-07
52.2253908681436	0.461700439453125	1.514892578125E-07
52.3474608678354	0.462921142578125	1.434326171875E-07
52.4695308675272	0.463623046875	1.48345947265625E-07
52.591600867219	0.4691162109375	1.5472412109375E-07
52.7136708669108	0.468902587890625	1.54541015625E-07
52.8357408666026	0.470947265625	1.47247314453125E-07
52.9578108662944	0.47589111328125	1.56005859375E-07
53.0798808659862	0.4769287109375	1.52069091796875E-07
53.201950865678	0.478668212890625	1.47918701171875E-07
53.3240208653698	0.483306884765625	1.57806396484375E-07
53.4460908650616	0.484619140625	1.5130615234375E-07
53.5681608647534	0.4884033203125	1.57562255859375E-07
53.6902308644452	0.49139404296875	1.5472412109375E-07
53.812300864137	0.49114990234375	1.553955078125E-07
53.9343708638288	0.494537353515625	1.51275634765625E-07
54.0564408635206	0.498046875	1.6046142578125E-07
54.1785108632124	0.50030517578125	1.572265625E-07
54.3005808629042	0.50347900390625	1.60797119140625E-07
54.422650862596	0.50567626953125	1.627197265625E-07
54.5447208622878	0.505859375	1.556396484375E-07
54.6667908619796	0.51007080078125	1.6082763671875E-07
54.7888608616714	0.51336669921875	1.70318603515625E-07
54.9109308613632	0.513092041015625	1.57073974609375E-07
55.033000861055	0.518035888671875	1.65435791015625E-07
55.1550708607468	0.52044677734375	1.66961669921875E-07
55.2771408604386	0.52215576171875	1.58355712890625E-07
55.3992108601304	0.524871826171875	1.6363525390625E-07
55.5212808598222	0.52459716796875	1.34796142578125E-07
55.643350859514	0.5201416015625	1.23077392578125E-07
55.7654208592058	0.517608642578125	1.0919189453125E-07
55.8874908588977	0.5169677734375	1.0986328125E-07
56.0095608585895	0.513946533203125	9.619140625E-08
56.1316308582813	0.510772705078125	9.2315673828125E-08
56.2537008579731	0.509613037109375	9.765625E-08
56.3757708576649	0.50811767578125	9.197998046875E-08
56.4978408573567	0.50286865234375	7.7117919921875E-08
56.6199108570485	0.502410888671875	8.0535888671875E-08
56.7419808567403	0.500213623046875	7.611083984375E-08
56.8640508564321	0.495941162109375	6.7047119140625E-08
56.9861208561239	0.4945068359375	6.927490234375E-08
57.1081908558157	0.491302490234375	6.5643310546875E-08
57.2302608555075	0.48797607421875	5.3680419921875E-08
57.3523308551993	0.4874267578125	5.859375E-08
57.4744008548911	0.484283447265625	5.987548828125E-08
57.5964708545829	0.480224609375	5.7647705078125E-08
57.7185408542747	0.479034423828125	5.0872802734375E-08
57.8406108539665	0.475921630859375	4.79736328125E-08
57.9626808536583	0.47296142578125	4.638671875E-08
58.0847508533501	0.4718017578125	4.99267578125E-08
58.2068208530419	0.468170166015625	3.9825439453125E-08
58.3288908527337	0.465423583984375	4.2449951171875E-08
58.4509608524255	0.465484619140625	4.449462890625E-08
58.5730308521173	0.46136474609375	3.7078857421875E-08
58.6951008518091	0.457489013671875	2.6336669921875E-08
58.8171708515009	0.4573974609375	3.8726806640625E-08
58.9392408511927	0.454132080078125	3.69873046875E-08
59.0613108508845	0.4495849609375	2.6214599609375E-08
59.1833808505763	0.44921875	3.155517578125E-08
59.3054508502681	0.44708251953125	3.1524658203125E-08
59.4275208499599	0.442779541015625	2.7130126953125E-08
59.5495908496517	0.44024658203125	2.45361328125E-08
59.6716608493435	0.440216064453125	3.1707763671875E-08
59.7937308490353	0.435302734375	2.2796630859375E-08
59.9158008487271	0.432281494140625	1.702880859375E-08
60.0378708484189	0.43280029296875	2.203369140625E-08
60.1599408481108	0.428131103515625	2.2613525390625E-08
60.2820108478026	0.426239013671875	1.55029296875E-08
60.4040808474944	0.425323486328125	2.679443359375E-08
60.5261508471862	0.420867919921875	1.800537109375E-08
60.648220846878	0.419921875	2.5146484375E-08
60.7702908465698	0.41796875	1.7822265625E-08
60.8923608462616	0.41412353515625	1.3519287109375E-08
61.0144308459534	0.413299560546875	1.6448974609375E-08
61.1365008456452	0.410858154296875	1.9439697265625E-08
61.258570845337	0.407135009765625	1.715087890625E-08
61.3806408450288	0.40625	1.8829345703125E-08
61.5027108447206	0.403656005859375	1.7578125E-08
61.6247808444124	0.39910888671875	5.950927734375E-09
61.7468508441042	0.398681640625	1.0833740234375E-08
61.868920843796	0.396636962890625	1.18408203125E-08
61.9909908434878	0.392974853515625	6.866455078125E-09
62.1130608431796	0.391021728515625	1.0589599609375E-08
62.2351308428714	0.389556884765625	1.1474609375E-08
62.3572008425632	0.385833740234375	1.739501953125E-09
62.479270842255	0.383514404296875	4.974365234375E-09
62.6013408419468	0.38336181640625	8.270263671875E-09
62.7234108416386	0.37890625	1.080322265625E-08
62.8454808413304	0.376220703125	4.7607421875E-09
62.9675508410222	0.3758544921875	1.11083984375E-08
63.089620840714	0.37298583984375	7.9345703125E-09
63.2116908404058	0.369293212890625	5.645751953125E-09
63.3337608400976	0.3685302734375	1.01318359375E-08
63.4558308397894	0.3668212890625	9.09423828125E-09
63.5779008394812	0.361785888671875	-2.655029296875E-09
63.699970839173	0.36114501953125	2.01416015625E-09
63.8220408388648	0.35943603515625	7.049560546875E-09
63.9441108385566	0.35430908203125	-2.197265625E-09
64.0661808382484	0.352447509765625	4.608154296875E-09
64.1882508379402	0.34930419921875	-2.716064453125E-09
64.310320837632	0.346343994140625	-5.096435546875E-09
64.4323908373239	0.34564208984375	-5.645751953125E-09
64.5544608370157	0.342315673828125	-8.544921875E-09
64.6765308367075	0.339874267578125	-7.75146484375E-09
64.7986008363993	0.338531494140625	-1.3427734375E-09
64.9206708360911	0.335479736328125	-3.0517578125E-10
65.0427408357829	0.33233642578125	-1.2939453125E-08
65.1648108354747	0.33074951171875	-1.1199951171875E-08
65.2868808351665	0.327392578125	-1.2908935546875E-08
65.4089508348583	0.324188232421875	-2.20947265625E-08
65.5310208345501	0.324981689453125	-9.307861328125E-09
65.6530908342419	0.3197021484375	-1.9622802734375E-08
65.7751608339337	0.316253662109375	-1.580810546875E-08
65.8972308336255	0.316131591796875	-1.35498046875E-08
66.0193008333173	0.312530517578125	-1.849365234375E-08
66.1413708330091	0.307952880859375	-2.2064208984375E-08
66.2634408327009	0.30792236328125	-1.849365234375E-08
66.3855108323927	0.305694580078125	-1.9195556640625E-08
66.5075808320845	0.3011474609375	-2.5634765625E-08
66.6296508317763	0.300048828125	-2.1026611328125E-08
66.7517208314681	0.298675537109375	-2.33154296875E-08
66.8737908311599	0.29443359375	-2.1820068359375E-08
66.9958608308517	0.290771484375	-2.9510498046875E-08
67.1179308305435	0.291717529296875	-3.2318115234375E-08
67.2400008302353	0.286407470703125	-3.1524658203125E-08
67.3620708299271	0.283111572265625	-3.515625E-08
67.4841408296189	0.283782958984375	-2.5054931640625E-08
67.6062108293107	0.27960205078125	-3.704833984375E-08
67.7282808290025	0.278778076171875	-3.7322998046875E-08
67.8503508286943	0.275909423828125	-3.1463623046875E-08
67.9724208283861	0.27197265625	-4.6478271484375E-08
68.0944908280779	0.271270751953125	-3.7200927734375E-08
68.2165608277697	0.26983642578125	-2.630615234375E-08
68.3386308274615	0.266632080078125	-4.0191650390625E-08
68.4607008271533	0.264984130859375	-3.72314453125E-08
68.5827708268451	0.262603759765625	-3.80859375E-08
68.704840826537	0.258697509765625	-3.7750244140625E-08
68.8269108262288	0.2568359375	-4.8583984375E-08
68.9489808259206	0.255645751953125	-3.973388671875E-08
69.0710508256124	0.24920654296875	-4.779052734375E-08
69.1931208253042	0.24957275390625	-4.2266845703125E-08
69.315190824996	0.2481689453125	-4.107666015625E-08
69.4372608246878	0.242919921875	-5.6671142578125E-08
69.5593308243796	0.24298095703125	-4.23583984375E-08
69.6814008240714	0.240325927734375	-4.6051025390625E-08
69.8034708237632	0.237579345703125	-4.8370361328125E-08
69.925540823455	0.23541259765625	-4.7271728515625E-08
70.0476108231468	0.234466552734375	-4.8095703125E-08
70.1696808228386	0.229583740234375	-5.76171875E-08
70.2917508225304	0.227020263671875	-5.1361083984375E-08
70.4138208222222	0.227447509765625	-4.00390625E-08
70.535890821914	0.224456787109375	-4.8004150390625E-08
70.6579608216058	0.22003173828125	-5.3955078125E-08
70.7800308212976	0.220489501953125	-5.1361083984375E-08
70.9021008209894	0.217987060546875	-4.4677734375E-08
71.0241708206812	0.21337890625	-5.7403564453125E-08
71.146240820373	0.212005615234375	-4.7149658203125E-08
71.2683108200648	0.2099609375	-4.6478271484375E-08
71.3903808197566	0.20556640625	-5.76171875E-08
71.5124508194484	0.204254150390625	-5.1971435546875E-08
71.6345208191402	0.20086669921875	-5.8563232421875E-08
71.756590818832	0.197601318359375	-5.79833984375E-08
71.8786608185238	0.19744873046875	-5.1025390625E-08
72.0007308182156	0.193634033203125	-6.103515625E-08
72.1228008179074	0.19024658203125	-6.0272216796875E-08
72.2448708175992	0.18939208984375	-6.43310546875E-08
72.366940817291	0.185943603515625	-6.7230224609375E-08
72.4890108169828	0.18267822265625	-6.2042236328125E-08
72.6110808166746	0.1834716796875	-6.060791015625E-08
72.7331508163664	0.178253173828125	-6.0699462890625E-08
72.8552208160583	0.17462158203125	-6.8267822265625E-08
72.9772908157501	0.1756591796875	-5.718994140625E-08
73.0993608154419	0.1715087890625	-6.50634765625E-08
73.2214308151337	0.166778564453125	-6.8206787109375E-08
73.3435008148255	0.16815185546875	-6.0150146484375E-08
73.4655708145173	0.163726806640625	-6.610107421875E-08
73.5876408142091	0.1591796875	-7.2021484375E-08
73.7097108139009	0.159332275390625	-5.9112548828125E-08
73.8317808135927	0.15692138671875	-6.9305419921875E-08
73.9538508132845	0.1529541015625	-8.1695556640625E-08
74.0759208129763	0.15179443359375	-6.93359375E-08
74.1979908126681	0.149993896484375	-6.6436767578125E-08
74.3200608123599	0.14599609375	-7.122802734375E-08
74.4421308120517	0.142364501953125	-7.5469970703125E-08
74.5642008117435	0.1422119140625	-6.5032958984375E-08
74.6862708114353	0.138763427734375	-7.562255859375E-08
74.8083408111271	0.134979248046875	-8.23974609375E-08
74.9304108108189	0.13519287109375	-6.9915771484375E-08
75.0524808105107	0.13092041015625	-8.013916015625E-08
75.1745508102025	0.127532958984375	-8.0841064453125E-08
75.2966208098943	0.12872314453125	-7.4249267578125E-08
75.4186908095861	0.123779296875	-7.489013671875E-08
75.5407608092779	0.1226806640625	-7.0770263671875E-08
75.6628308089697	0.1202392578125	-7.82470703125E-08
75.7849008086615	0.116485595703125	-7.8033447265625E-08
75.9069708083533	0.11553955078125	-7.7850341796875E-08
76.0290408080451	0.113250732421875	-7.2784423828125E-08
76.1511108077369	0.110107421875	-7.48291015625E-08
76.2731808074287	0.10870361328125	-7.3333740234375E-08
76.3952508071205	0.10662841796875	-7.5225830078125E-08
76.5173208068123	0.101898193359375	-7.6080322265625E-08
76.6393908065041	0.101104736328125	-7.1990966796875E-08
76.7614608061959	0.09942626953125	-7.2662353515625E-08
76.8835308058877	0.093658447265625	-8.6456298828125E-08
77.0056008055795	0.09405517578125	-7.9498291015625E-08
77.1276708052714	0.091339111328125	-7.0892333984375E-08
77.2497408049632	0.087188720703125	-8.5235595703125E-08
77.371810804655	0.086029052734375	-7.257080078125E-08
77.4938808043468	0.085601806640625	-7.5958251953125E-08
77.6159508040386	0.081085205078125	-8.447265625E-08
77.7380208037304	0.079498291015625	-7.5439453125E-08
77.8600908034222	0.078521728515625	-7.0831298828125E-08
77.982160803114	0.0740966796875	-7.9010009765625E-08
78.1042308028058	0.0714111328125	-7.9376220703125E-08
78.2263008024976	0.071258544921875	-6.6436767578125E-08
78.3483708021894	0.0684814453125	-6.939697265625E-08
78.4704408018812	0.064056396484375	-7.763671875E-08
78.592510801573	0.06427001953125	-7.55615234375E-08
78.7145808012648	0.061279296875	-7.9437255859375E-08
78.8366508009566	0.057098388671875	-7.8399658203125E-08
78.9587208006484	0.05633544921875	-7.5408935546875E-08
79.0807908003402	0.053680419921875	-7.421875E-08
79.202860800032	0.0495025634765625	-8.2061767578125E-08
79.3249307997238	0.04888916015625	-7.9193115234375E-08
79.4470007994156	0.0446685791015625	-7.7362060546875E-08
79.5690707991074	0.0427764892578125	-8.758544921875E-08
79.6911407987992	0.0404632568359375	-7.8094482421875E-08
79.813210798491	0.037445068359375	-8.233642578125E-08
79.9352807981828	0.0353271484375	-8.3953857421875E-08
80.0573507978746	0.0325439453125	-7.4493408203125E-08
80.1794207975664	0.03011474609375	-8.36181640625E-08
80.3014907972582	0.0278533935546875	-8.9508056640625E-08
80.42356079695	0.025555419921875	-8.4808349609375E-08
80.5456307966418	0.023126220703125	-8.2733154296875E-08
80.6677007963336	0.0201812744140625	-8.416748046875E-08
80.7897707960254	0.0184356689453125	-7.5286865234375E-08
80.9118407957172	0.015338134765625	-8.935546875E-08
81.033910795409	0.0134674072265625	-9.393310546875E-08
81.1559807951008	0.0106658935546875	-7.2021484375E-08
81.2780507947926	0.00865783691406249	-9.0576171875E-08
81.4001207944845	0.0055389404296875	-9.5306396484375E-08
81.5221907941763	0.0034942626953125	-8.1512451171875E-08
81.6442607938681	0.000668334960937503	-9.393310546875E-08
81.7663307935599	-0.0015380859375	-1.03179931640625E-07
81.8884007932517	-0.00413818359375	-8.9935302734375E-08
82.0104707929435	-0.00646057128906249	-8.75244140625E-08
82.1325407926353	-0.0092010498046875	-9.429931640625E-08
82.2546107923271	-0.011175537109375	-9.5550537109375E-08
82.3766807920189	-0.0136871337890625	-8.8226318359375E-08
82.4987507917107	-0.0159912109375	-1.0040283203125E-07
82.6208207914025	-0.0185516357421875	-9.326171875E-08
82.7428907910943	-0.021282958984375	-9.228515625E-08
82.8649607907861	-0.0235626220703125	-9.820556640625E-08
82.9870307904779	-0.0261474609375	-9.771728515625E-08
83.1091007901697	-0.0283172607421875	-9.1278076171875E-08
83.2311707898615	-0.0313232421875	-9.9151611328125E-08
83.3532407895533	-0.0350341796875	-9.9090576171875E-08
83.4753107892451	-0.0356719970703125	-9.600830078125E-08
83.5973807889369	-0.0378753662109375	-1.01806640625E-07
83.7194507886287	-0.0402191162109375	-8.8409423828125E-08
83.8415207883205	-0.042498779296875	-9.5947265625E-08
83.9635907880123	-0.045806884765625	-9.58251953125E-08
84.0856607877041	-0.048162841796875	-9.527587890625E-08
84.2077307873959	-0.049798583984375	-9.55810546875E-08
84.3298007870877	-0.053466796875	-9.16748046875E-08
84.4518707867795	-0.054473876953125	-1.01287841796875E-07
84.5739407864713	-0.056427001953125	-9.820556640625E-08
84.6960107861631	-0.062225341796875	-1.06353759765625E-07
84.8180807858549	-0.062164306640625	-9.7625732421875E-08
84.9401507855467	-0.06329345703125	-1.00006103515625E-07
85.0622207852385	-0.06939697265625	-1.0833740234375E-07
85.1842907849303	-0.069122314453125	-9.66796875E-08
85.3063607846221	-0.07073974609375	-1.041259765625E-07
85.4284307843139	-0.074371337890625	-1.00616455078125E-07
85.5505007840057	-0.07659912109375	-1.06597900390625E-07
85.6725707836976	-0.077789306640625	-9.967041015625E-08
85.7946407833894	-0.081085205078125	-1.02752685546875E-07
85.9167107830812	-0.084564208984375	-1.0992431640625E-07
86.038780782773	-0.084320068359375	-1.04583740234375E-07
86.1608507824648	-0.087127685546875	-1.077880859375E-07
86.2829207821566	-0.091766357421875	-1.146240234375E-07
86.4049907818484	-0.09228515625	-1.10809326171875E-07
86.5270607815402	-0.09417724609375	-1.09039306640625E-07
86.649130781232	-0.099639892578125	-1.17218017578125E-07
86.7712007809238	-0.099517822265625	-1.1248779296875E-07
86.8932707806156	-0.102020263671875	-1.11968994140625E-07
87.0153407803074	-0.10650634765625	-1.2567138671875E-07
87.1374107799992	-0.106842041015625	-1.1517333984375E-07
87.259480779691	-0.11029052734375	-1.1602783203125E-07
87.3815507793828	-0.113677978515625	-1.3214111328125E-07
87.5036207790746	-0.114654541015625	-1.23138427734375E-07
87.6256907787664	-0.11798095703125	-1.26129150390625E-07
87.7477607784582	-0.121246337890625	-1.3629150390625E-07
87.86983077815	-0.121734619140625	-1.2591552734375E-07
87.9919007778418	-0.12579345703125	-1.3470458984375E-07
88.1139707775336	-0.129364013671875	-1.31622314453125E-07
88.2360407772254	-0.13018798828125	-1.38885498046875E-07
88.3581107769172	-0.13323974609375	-1.434326171875E-07
88.480180776609	-0.13714599609375	-1.46484375E-07
88.6022507763008	-0.13665771484375	-1.494140625E-07
88.7243207759926	-0.14111328125	-1.5191650390625E-07
88.8463907756844	-0.144012451171875	-1.558837890625E-07
88.9684607753762	-0.14349365234375	-1.53656005859375E-07
89.090530775068	-0.147796630859375	-1.58538818359375E-07
89.2126007747598	-0.152374267578125	-1.6925048828125E-07
89.3346707744516	-0.1513671875	-1.6314697265625E-07
89.4567407741434	-0.155426025390625	-1.74896240234375E-07
89.5788107738352	-0.15960693359375	-1.8017578125E-07
89.700880773527	-0.15924072265625	-1.66961669921875E-07
89.8229507732188	-0.162109375	-1.86279296875E-07
89.9450207729107	-0.167877197265625	-2.0391845703125E-07
90.0670907726025	-0.1669921875	-1.8994140625E-07
90.1891607722943	-0.1695556640625	-1.968994140625E-07
90.3112307719861	-0.17340087890625	-2.13897705078125E-07
90.4333007716779	-0.175018310546875	-2.0587158203125E-07
90.5553707713697	-0.17645263671875	-2.100830078125E-07
90.6774407710615	-0.18115234375	-2.25341796875E-07
90.7995107707533	-0.18487548828125	-2.33917236328125E-07
90.9215807704451	-0.184051513671875	-2.37396240234375E-07
91.0436507701369	-0.188079833984375	-2.506103515625E-07
91.1657207698287	-0.19195556640625	-2.60833740234375E-07
91.2877907695205	-0.190216064453125	-2.5396728515625E-07
91.4098607692123	-0.196441650390625	-2.757568359375E-07
91.5319307689041	-0.19964599609375	-2.781982421875E-07
91.6540007685959	-0.197509765625	-2.7685546875E-07
91.7760707682877	-0.2020263671875	-2.955322265625E-07
91.8981407679795	-0.202362060546875	-3.0621337890625E-07
92.0202107676713	-0.2066650390625	-4.150390625E-07
92.1422807673631	-0.209503173828125	-4.3670654296875E-07
92.2643507670549	-0.21160888671875	-4.50439453125E-07
92.3864207667467	-0.213836669921875	-4.6417236328125E-07
92.5084907664385	-0.216094970703125	-4.89501953125E-07
92.6305607661303	-0.218658447265625	-5.04150390625E-07
92.7526307658221	-0.22100830078125	-5.18798828125E-07
92.8747007655139	-0.223785400390625	-5.5206298828125E-07
92.9967707652057	-0.226318359375	-5.5755615234375E-07
93.1188407648975	-0.22845458984375	-5.8563232421875E-07
93.2409107645893	-0.231201171875	-6.1004638671875E-07
93.3629807642811	-0.232818603515625	-6.3079833984375E-07
93.4850507639729	-0.235870361328125	-6.561279296875E-07
93.6071207636647	-0.238616943359375	-7.0404052734375E-07
93.7291907633565	-0.24102783203125	-7.2021484375E-07
93.8512607630483	-0.2425537109375	-7.476806640625E-07
93.9733307627401	-0.245452880859375	-7.92236328125E-07
94.095400762432	-0.24774169921875	-8.21533203125E-07
94.2174707621238	-0.250518798828125	-8.49609375E-07
94.3395407618156	-0.25335693359375	-8.8897705078125E-07
94.4616107615074	-0.255279541015625	-9.3505859375E-07
94.5836807611992	-0.25714111328125	-9.6710205078125E-07
94.705750760891	-0.259765625	-1.01898193359375E-06
94.8278207605828	-0.262176513671875	-1.07086181640625E-06
94.9498907602746	-0.2647705078125	-1.1029052734375E-06
95.0719607599664	-0.267242431640625	-1.1663818359375E-06
95.1940307596582	-0.269744873046875	-1.23260498046875E-06
95.31610075935	-0.272308349609375	-1.2725830078125E-06
95.4381707590418	-0.27392578125	-1.32781982421875E-06
95.5602407587336	-0.277496337890625	-1.41448974609375E-06
95.6823107584254	-0.278839111328125	-1.4642333984375E-06
95.8043807581172	-0.280517578125	-1.5191650390625E-06
95.926450757809	-0.28485107421875	-1.63482666015625E-06
96.0485207575008	-0.28704833984375	-1.70074462890625E-06
96.1705907571926	-0.2896728515625	-1.79656982421875E-06
96.2926607568844	-0.29132080078125	-1.88629150390625E-06
96.4147307565762	-0.29412841796875	-1.97418212890625E-06
96.536800756268	-0.29644775390625	-2.0831298828125E-06
96.6588707559598	-0.299346923828125	-2.1905517578125E-06
96.7809407556516	-0.301055908203125	-2.2943115234375E-06
96.9030107553434	-0.30328369140625	-2.410888671875E-06
97.0250807550352	-0.306488037109375	-2.55279541015625E-06
97.147150754727	-0.30841064453125	-2.67578125E-06
97.2692207544188	-0.310943603515625	-2.81707763671875E-06
97.3912907541106	-0.31341552734375	-2.9730224609375E-06
97.5133607538024	-0.315216064453125	-3.1134033203125E-06
97.6354307534942	-0.319061279296875	-3.3203125E-06
97.757500753186	-0.320831298828125	-3.4820556640625E-06
97.8795707528778	-0.323638916015625	-3.656005859375E-06
98.0016407525696	-0.3265380859375	-3.857421875E-06
98.1237107522614	-0.328369140625	-4.058837890625E-06
98.2457807519532	-0.33074951171875	-4.2755126953125E-06
98.3678507516451	-0.333526611328125	-4.5135498046875E-06
98.4899207513369	-0.336181640625	-4.7637939453125E-06
98.6119907510287	-0.33843994140625	-5.0079345703125E-06
98.7340607507205	-0.3411865234375	-5.279541015625E-06
98.8561307504123	-0.3436279296875	-5.57861328125E-06
98.9782007501041	-0.346099853515625	-5.8746337890625E-06
99.1002707497959	-0.3486328125	-6.1676025390625E-06
99.2223407494877	-0.350311279296875	-6.5216064453125E-06
99.3444107491795	-0.352783203125	-6.866455078125E-06
99.4664807488713	-0.3558349609375	-7.2357177734375E-06
99.5885507485631	-0.35748291015625	-7.6416015625E-06
99.7106207482549	-0.35980224609375	-8.06884765625E-06
99.8326907479467	-0.362884521484375	-8.50830078125E-06
99.9547607476385	-0.36529541015625	-8.9935302734375E-06
100.07683074733	-0.367584228515625	-9.5123291015625E-06
100.198900747022	-0.370208740234375	-1.00067138671875E-05
100.320970746714	-0.372833251953125	-1.05743408203125E-05
100.443040746406	-0.375244140625	-1.116943359375E-05
100.565110746098	-0.376800537109375	-1.17706298828125E-05
100.687180745789	-0.379241943359375	-1.2432861328125E-05
100.809250745481	-0.382568359375	-1.3116455078125E-05
100.931320745173	-0.3839111328125	-1.3836669921875E-05
101.053390744865	-0.386932373046875	-1.46270751953125E-05
101.175460744557	-0.389801025390625	-1.54205322265625E-05
101.297530744248	-0.39129638671875	-1.62567138671875E-05
101.41960074394	-0.3948974609375	-1.71142578125E-05
101.541670743632	-0.396942138671875	-1.8017578125E-05
101.663740743324	-0.39862060546875	-1.89422607421875E-05
101.785810743016	-0.40093994140625	-1.9915771484375E-05
101.907880742707	-0.404052734375	-2.08770751953125E-05
102.029950742399	-0.40618896484375	-2.186279296875E-05
102.152020742091	-0.408599853515625	-2.28607177734375E-05
102.274090741783	-0.411285400390625	-2.38433837890625E-05
102.396160741475	-0.413726806640625	-2.48016357421875E-05
102.518230741166	-0.416046142578125	-2.57537841796875E-05
102.640300740858	-0.4189453125	-2.66448974609375E-05
102.76237074055	-0.421234130859375	-2.7508544921875E-05
102.884440740242	-0.4234619140625	-2.83172607421875E-05
103.006510739934	-0.425537109375	-2.90679931640625E-05
103.128580739625	-0.4287109375	-2.9730224609375E-05
103.250650739317	-0.430877685546875	-3.03436279296875E-05
103.372720739009	-0.433074951171875	-3.0877685546875E-05
103.494790738701	-0.436370849609375	-3.1341552734375E-05
103.616860738393	-0.43878173828125	-3.17169189453125E-05
103.738930738084	-0.440948486328125	-3.20587158203125E-05
103.861000737776	-0.443603515625	-3.23089599609375E-05
103.983070737468	-0.445953369140625	-3.24951171875E-05
104.10514073716	-0.447723388671875	-3.2666015625E-05
104.227210736852	-0.45062255859375	-3.27392578125E-05
104.349280736543	-0.4532470703125	-3.2763671875E-05
104.471350736235	-0.455291748046875	-3.27911376953125E-05
104.593420735927	-0.45831298828125	-3.27362060546875E-05
104.715490735619	-0.460235595703125	-3.26751708984375E-05
104.837560735311	-0.462982177734375	-3.2568359375E-05
104.959630735002	-0.465606689453125	-3.24249267578125E-05
105.081700734694	-0.46746826171875	-3.2269287109375E-05
105.203770734386	-0.470489501953125	-3.20831298828125E-05
105.325840734078	-0.47222900390625	-3.1878662109375E-05
105.44791073377	-0.4747314453125	-3.16650390625E-05
105.569980733461	-0.477813720703125	-3.1463623046875E-05
105.692050733153	-0.480224609375	-3.12408447265625E-05
105.814120732845	-0.481964111328125	-3.1024169921875E-05
105.936190732537	-0.485137939453125	-3.082275390625E-05
106.058260732229	-0.487579345703125	-3.06182861328125E-05
106.18033073192	-0.490081787109375	-3.04290771484375E-05
106.302400731612	-0.492340087890625	-3.02459716796875E-05
106.424470731304	-0.494720458984375	-3.0084228515625E-05
106.546540730996	-0.497222900390625	-2.994384765625E-05
106.668610730688	-0.499267578125	-2.98431396484375E-05
106.790680730379	-0.501678466796875	-2.9730224609375E-05
106.912750730071	-0.50469970703125	-2.965087890625E-05
107.034820729763	-0.5064697265625	-2.96142578125E-05
107.156890729455	-0.50885009765625	-2.95623779296875E-05
107.278960729147	-0.51171875	-2.95379638671875E-05
107.401030728838	-0.5142822265625	-2.95684814453125E-05
107.52310072853	-0.516571044921875	-2.96142578125E-05
107.645170728222	-0.519073486328125	-2.9681396484375E-05
107.767240727914	-0.521728515625	-2.97515869140625E-05
107.889310727606	-0.52410888671875	-2.989501953125E-05
108.011380727297	-0.525848388671875	-2.99896240234375E-05
108.133450726989	-0.52880859375	-3.01666259765625E-05
108.255520726681	-0.53125	-3.03375244140625E-05
108.377590726373	-0.53338623046875	-3.0499267578125E-05
108.499660726065	-0.535552978515625	-3.0706787109375E-05
108.621730725756	-0.53826904296875	-3.09326171875E-05
108.743800725448	-0.5411376953125	-3.1146240234375E-05
108.86587072514	-0.5430908203125	-3.14056396484375E-05
108.987940724832	-0.54534912109375	-3.16680908203125E-05
109.110010724524	-0.548553466796875	-3.193359375E-05
109.232080724216	-0.551025390625	-3.22113037109375E-05
109.354150723907	-0.55267333984375	-3.25042724609375E-05
109.476220723599	-0.55584716796875	-3.27972412109375E-05
109.598290723291	-0.558197021484375	-3.31085205078125E-05
109.720360722983	-0.5601806640625	-3.3428955078125E-05
109.842430722675	-0.56292724609375	-3.375244140625E-05
109.964500722366	-0.56524658203125	-3.41094970703125E-05
110.086570722058	-0.567291259765625	-3.4454345703125E-05
110.20864072175	-0.5697021484375	-3.47991943359375E-05
110.330710721442	-0.572265625	-3.51593017578125E-05
110.452780721134	-0.574615478515625	-3.55377197265625E-05
110.574850720825	-0.57745361328125	-3.59039306640625E-05
110.696920720517	-0.58001708984375	-3.631591796875E-05
110.818990720209	-0.582427978515625	-3.66973876953125E-05
110.941060719901	-0.585205078125	-3.70880126953125E-05
111.063130719593	-0.587432861328125	-3.74603271484375E-05
111.185200719284	-0.589263916015625	-3.79150390625E-05
111.307270718976	-0.59161376953125	-3.83209228515625E-05
111.429340718668	-0.59417724609375	-3.87481689453125E-05
111.55141071836	-0.5972900390625	-3.92242431640625E-05
111.673480718052	-0.599884033203125	-3.96575927734375E-05
111.795550717743	-0.6021728515625	-4.0069580078125E-05
111.917620717435	-0.6038818359375	-4.05975341796875E-05
112.039690717127	-0.607147216796875	-4.10736083984375E-05
112.161760716819	-0.609344482421875	-4.1534423828125E-05
112.283830716511	-0.611572265625	-4.19921875E-05
112.405900716202	-0.614471435546875	-4.254150390625E-05
112.527970715894	-0.616180419921875	-4.302978515625E-05
112.650040715586	-0.619293212890625	-4.3548583984375E-05
112.772110715278	-0.62176513671875	-4.40673828125E-05
112.89418071497	-0.623748779296875	-4.4586181640625E-05
113.016250714661	-0.626007080078125	-4.5074462890625E-05
113.138320714353	-0.628326416015625	-4.5623779296875E-05
113.260390714045	-0.631500244140625	-4.6142578125E-05
113.382460713737	-0.633331298828125	-4.6722412109375E-05
113.504530713429	-0.635772705078125	-4.72412109375E-05
113.62660071312	-0.638427734375	-4.7821044921875E-05
113.748670712812	-0.641387939453125	-4.840087890625E-05
113.870740712504	-0.64373779296875	-4.8980712890625E-05
113.992810712196	-0.64617919921875	-4.9560546875E-05
114.114880711888	-0.64776611328125	-5.01708984375E-05
114.236950711579	-0.650238037109375	-5.0750732421875E-05
114.359020711271	-0.65325927734375	-5.1361083984375E-05
114.481090710963	-0.655792236328125	-5.2001953125E-05
114.603160710655	-0.658294677734375	-5.2642822265625E-05
114.725230710347	-0.660400390625	-5.3253173828125E-05
114.847300710038	-0.662567138671875	-5.3924560546875E-05
114.96937070973	-0.6649169921875	-5.45654296875E-05
115.091440709422	-0.6680908203125	-5.517578125E-05
115.213510709114	-0.670318603515625	-5.584716796875E-05
115.335580708806	-0.6727294921875	-5.6549072265625E-05
115.457650708497	-0.674652099609375	-5.7220458984375E-05
115.579720708189	-0.677215576171875	-5.7891845703125E-05
115.701790707881	-0.679656982421875	-5.859375E-05
115.823860707573	-0.68267822265625	-5.9326171875E-05
115.945930707265	-0.68487548828125	-6.005859375E-05
116.068000706956	-0.68743896484375	-6.0760498046875E-05
116.190070706648	-0.689239501953125	-6.1492919921875E-05
116.31214070634	-0.692474365234375	-6.2255859375E-05
116.434210706032	-0.694427490234375	-6.3018798828125E-05
116.556280705724	-0.697296142578125	-6.378173828125E-05
116.678350705415	-0.69970703125	-6.45751953125E-05
116.800420705107	-0.70159912109375	-6.536865234375E-05
116.922490704799	-0.70404052734375	-6.6192626953125E-05
117.044560704491	-0.706390380859375	-6.70166015625E-05
117.166630704183	-0.7093505859375	-6.7840576171875E-05
117.288700703875	-0.711639404296875	-6.8634033203125E-05
117.410770703566	-0.71435546875	-6.951904296875E-05
117.532840703258	-0.716461181640625	-7.037353515625E-05
117.65491070295	-0.718719482421875	-7.122802734375E-05
117.776980702642	-0.720916748046875	-7.21435546875E-05
117.899050702334	-0.723388671875	-7.3089599609375E-05
118.021120702025	-0.726409912109375	-7.3944091796875E-05
118.143190701717	-0.72900390625	-7.48291015625E-05
118.265260701409	-0.731475830078125	-7.5836181640625E-05
118.387330701101	-0.733245849609375	-7.6751708984375E-05
118.509400700793	-0.73553466796875	-7.7667236328125E-05
118.631470700484	-0.73876953125	-7.87353515625E-05
118.753540700176	-0.7412109375	-7.9681396484375E-05
118.875610699868	-0.743621826171875	-8.0596923828125E-05
118.99768069956	-0.7454833984375	-8.16650390625E-05
119.119750699252	-0.747650146484375	-8.2672119140625E-05
119.241820698943	-0.75042724609375	-8.367919921875E-05
119.363890698635	-0.75408935546875	-8.4808349609375E-05
119.485960698327	-0.75592041015625	-8.58154296875E-05
119.608030698019	-0.75897216796875	-8.6883544921875E-05
119.730100697711	-0.7598876953125	-8.7982177734375E-05
119.852170697402	-0.76263427734375	-8.9141845703125E-05
119.974240697094	-0.765380859375	-9.02099609375E-05
120.096310696786	-0.76812744140625	-9.1339111328125E-05
120.218380696478	-0.77056884765625	-9.2498779296875E-05
120.34045069617	-0.772705078125	-9.3658447265625E-05
120.462520695861	-0.775146484375	-9.4818115234375E-05
120.584590695553	-0.77789306640625	-9.5977783203125E-05
120.706660695245	-0.7806396484375	-9.7137451171875E-05
120.828730694937	-0.78277587890625	-9.832763671875E-05
120.950800694629	-0.78521728515625	-9.954833984375E-05
121.07287069432	-0.787353515625	-0.00010076904296875
121.194940694012	-0.79010009765625	-0.000102020263671875
121.317010693704	-0.792236328125	-0.000103271484375
121.439080693396	-0.7952880859375	-0.000104522705078125
121.561150693088	-0.79742431640625	-0.000105926513671875
121.683220692779	-0.80047607421875	-0.000107208251953125
121.805290692471	-0.8026123046875	-0.000108551025390625
121.927360692163	-0.80474853515625	-0.000109893798828125
122.049430691855	-0.80657958984375	-0.000111328125
122.171500691547	-0.809326171875	-0.000112640380859375
122.293570691238	-0.8123779296875	-0.00011407470703125
122.41564069093	-0.81451416015625	-0.000115509033203125
122.537710690622	-0.81634521484375	-0.00011688232421875
122.659780690314	-0.8197021484375	-0.000118377685546875
122.781850690006	-0.821533203125	-0.0001197509765625
122.903920689697	-0.8245849609375	-0.0001212158203125
123.025990689389	-0.8270263671875	-0.00012274169921875
123.148060689081	-0.82977294921875	-0.000124267578125
123.270130688773	-0.83099365234375	-0.000125732421875
123.392200688465	-0.83465576171875	-0.00012725830078125
123.514270688156	-0.8367919921875	-0.000128814697265625
123.636340687848	-0.8392333984375	-0.000130340576171875
123.75841068754	-0.8416748046875	-0.0001319580078125
123.880480687232	-0.8441162109375	-0.000133514404296875
124.002550686924	-0.84564208984375	-0.00013507080078125
124.124620686615	-0.84808349609375	-0.00013665771484375
124.246690686307	-0.850830078125	-0.00013824462890625
124.368760685999	-0.8538818359375	-0.00013983154296875
124.490830685691	-0.8563232421875	-0.000141448974609375
124.612900685383	-0.8587646484375	-0.00014312744140625
124.734970685074	-0.86029052734375	-0.000144744873046875
124.857040684766	-0.863037109375	-0.0001463623046875
124.979110684458	-0.8660888671875	-0.00014801025390625
125.10118068415	-0.86883544921875	-0.000149658203125
125.223250683842	-0.8709716796875	-0.00015130615234375
125.345320683533	-0.87310791015625	-0.00015301513671875
125.467390683225	-0.875244140625	-0.000154693603515625
125.589460682917	-0.87738037109375	-0.000156341552734375
125.711530682609	-0.87982177734375	-0.000158172607421875
125.833600682301	-0.88287353515625	-0.00015985107421875
125.955670681993	-0.88531494140625	-0.0001614990234375
126.077740681684	-0.887451171875	-0.00016326904296875
126.199810681376	-0.889892578125	-0.0001649169921875
126.321880681068	-0.892333984375	-0.000166656494140625
126.44395068076	-0.894775390625	-0.00016845703125
126.566020680452	-0.89813232421875	-0.000170135498046875
126.688090680143	-0.89996337890625	-0.000171844482421875
126.810160679835	-0.9027099609375	-0.000173583984375
126.932230679527	-0.90545654296875	-0.000175384521484375
127.054300679219	-0.906982421875	-0.0001771240234375
127.176370678911	-0.909423828125	-0.000178924560546875
127.298440678602	-0.9124755859375	-0.0001806640625
127.420510678294	-0.9149169921875	-0.00018243408203125
127.542580677986	-0.91644287109375	-0.00018426513671875
127.664650677678	-0.9197998046875	-0.00018603515625
127.78672067737	-0.921630859375	-0.000187774658203125
127.908790677061	-0.92437744140625	-0.000189544677734375
128.030860676753	-0.92742919921875	-0.00019134521484375
128.152930676445	-0.92926025390625	-0.000193145751953125
128.275000676137	-0.93109130859375	-0.00019500732421875
128.397070675829	-0.93414306640625	-0.00019683837890625
128.51914067552	-0.93597412109375	-0.000198577880859375
128.641210675212	-0.93963623046875	-0.00020050048828125
128.763280674904	-0.941162109375	-0.000202301025390625
128.885350674596	-0.94390869140625	-0.000204010009765625
129.007420674288	-0.94573974609375	-0.000205841064453125
129.129490673979	-0.94879150390625	-0.000207672119140625
129.251560673671	-0.9515380859375	-0.00020947265625
129.373630673363	-0.95428466796875	-0.0002113037109375
129.495700673055	-0.95611572265625	-0.00021307373046875
129.617770672747	-0.958251953125	-0.000214874267578125
129.739840672438	-0.96099853515625	-0.0002166748046875
129.86191067213	-0.9637451171875	-0.000218475341796875
129.983980671822	-0.96527099609375	-0.000220245361328125
130.106050671514	-0.96771240234375	-0.000222076416015625
130.228120671206	-0.970458984375	-0.000223907470703125
130.350190670897	-0.9735107421875	-0.0002257080078125
130.472260670589	-0.975341796875	-0.00022760009765625
130.594330670281	-0.972900390625	-0.0002039794921875
130.716400669973	-0.970458984375	-0.00018798828125
130.838470669665	-0.968017578125	-0.00017559814453125
130.960540669356	-0.96527099609375	-0.000165374755859375
131.082610669048	-0.9637451171875	-0.000156585693359375
131.20468066874	-0.9619140625	-0.0001488037109375
131.326750668432	-0.95855712890625	-0.000141845703125
131.448820668124	-0.955810546875	-0.000135467529296875
131.570890667815	-0.95367431640625	-0.000129669189453125
131.692960667507	-0.95123291015625	-0.000124298095703125
131.815030667199	-0.9490966796875	-0.000119293212890625
131.937100666891	-0.9466552734375	-0.000114593505859375
132.059170666583	-0.94451904296875	-0.0001102294921875
132.181240666274	-0.941162109375	-0.000106048583984375
132.303310665966	-0.93841552734375	-0.000102020263671875
132.425380665658	-0.9368896484375	-9.8236083984375E-05
132.54745066535	-0.9344482421875	-9.466552734375E-05
132.669520665042	-0.93170166015625	-9.1278076171875E-05
132.791590664733	-0.9295654296875	-8.807373046875E-05
132.913660664425	-0.92681884765625	-8.4930419921875E-05
133.035730664117	-0.924072265625	-8.1939697265625E-05
133.157800663809	-0.92193603515625	-7.904052734375E-05
133.279870663501	-0.9197998046875	-7.6324462890625E-05
133.401940663192	-0.9173583984375	-7.36083984375E-05
133.524010662884	-0.914306640625	-7.1044921875E-05
133.646080662576	-0.911865234375	-6.854248046875E-05
133.768150662268	-0.90911865234375	-6.6192626953125E-05
133.89022066196	-0.9075927734375	-6.390380859375E-05
134.012290661651	-0.90484619140625	-6.16455078125E-05
134.134360661343	-0.90301513671875	-5.94482421875E-05
134.256430661035	-0.89935302734375	-5.7342529296875E-05
134.378500660727	-0.89691162109375	-5.5389404296875E-05
134.500570660419	-0.89447021484375	-5.3375244140625E-05
134.622640660111	-0.8929443359375	-5.1483154296875E-05
134.744710659802	-0.88958740234375	-4.962158203125E-05
134.866780659494	-0.8880615234375	-4.77294921875E-05
134.988850659186	-0.88470458984375	-4.5989990234375E-05
135.110920658878	-0.88226318359375	-4.43115234375E-05
135.23299065857	-0.87982177734375	-4.2572021484375E-05
135.355060658261	-0.87860107421875	-4.095458984375E-05
135.477130657953	-0.875244140625	-3.93890380859375E-05
135.599200657645	-0.87371826171875	-3.780517578125E-05
135.721270657337	-0.87005615234375	-3.63128662109375E-05
135.843340657029	-0.86761474609375	-3.48236083984375E-05
135.96541065672	-0.8648681640625	-3.3380126953125E-05
136.087480656412	-0.8636474609375	-3.199462890625E-05
136.209550656104	-0.8612060546875	-3.06304931640625E-05
136.331620655796	-0.85784912109375	-2.92388916015625E-05
136.453690655488	-0.85540771484375	-2.7923583984375E-05
136.575760655179	-0.853271484375	-2.66571044921875E-05
136.697830654871	-0.8502197265625	-2.53814697265625E-05
136.819900654563	-0.84869384765625	-2.4188232421875E-05
136.941970654255	-0.84686279296875	-2.2991943359375E-05
137.064040653947	-0.84320068359375	-2.1807861328125E-05
137.186110653638	-0.841064453125	-2.06787109375E-05
137.30818065333	-0.83892822265625	-1.95526123046875E-05
137.430250653022	-0.8367919921875	-1.8438720703125E-05
137.552320652714	-0.833740234375	-1.7388916015625E-05
137.674390652406	-0.831298828125	-1.6363525390625E-05
137.796460652097	-0.82916259765625	-1.53289794921875E-05
137.918530651789	-0.82672119140625	-1.43280029296875E-05
138.040600651481	-0.82427978515625	-1.339111328125E-05
138.162670651173	-0.8221435546875	-1.241455078125E-05
138.284740650865	-0.8197021484375	-1.148681640625E-05
138.406810650556	-0.81695556640625	-1.0595703125E-05
138.528880650248	-0.814208984375	-9.698486328125E-06
138.65095064994	-0.81268310546875	-8.8287353515625E-06
138.773020649632	-0.809326171875	-7.989501953125E-06
138.895090649324	-0.80780029296875	-7.1624755859375E-06
139.017160649015	-0.80474853515625	-6.3446044921875E-06
139.139230648707	-0.802001953125	-5.6060791015625E-06
139.261300648399	-0.79925537109375	-4.803466796875E-06
139.383370648091	-0.79620361328125	-4.0283203125E-06
139.505440647783	-0.79498291015625	-3.33251953125E-06
139.627510647474	-0.79315185546875	-2.62451171875E-06
139.749580647166	-0.79010009765625	-1.9134521484375E-06
139.871650646858	-0.7867431640625	-1.2451171875E-06
139.99372064655	-0.78460693359375	-5.706787109375E-07
140.115790646242	-0.7830810546875	1.03759765625E-07
140.237860645933	-0.77972412109375	7.415771484375E-07
140.359930645625	-0.77789306640625	1.3275146484375E-06
140.482000645317	-0.77484130859375	2.001953125E-06
140.604070645009	-0.772705078125	2.593994140625E-06
140.726140644701	-0.7696533203125	3.155517578125E-06
140.848210644392	-0.76934814453125	3.7384033203125E-06
140.970280644084	-0.76507568359375	4.2633056640625E-06
141.092350643776	-0.76385498046875	4.78515625E-06
141.214420643468	-0.760498046875	5.3375244140625E-06
141.33649064316	-0.75775146484375	5.8349609375E-06
141.458560642851	-0.75592041015625	6.3201904296875E-06
141.580630642543	-0.75408935546875	6.7840576171875E-06
141.702700642235	-0.7513427734375	7.2601318359375E-06
141.824770641927	-0.748931884765625	7.684326171875E-06
141.946840641619	-0.7454833984375	8.111572265625E-06
142.06891064131	-0.74346923828125	8.55712890625E-06
142.190980641002	-0.741546630859375	8.9111328125E-06
142.313050640694	-0.739227294921875	9.3536376953125E-06
142.435120640386	-0.736480712890625	9.747314453125E-06
142.557190640078	-0.73431396484375	1.01104736328125E-05
142.67926063977	-0.73077392578125	1.05010986328125E-05
142.801330639461	-0.728515625	1.0870361328125E-05
142.923400639153	-0.72601318359375	1.11602783203125E-05
143.045470638845	-0.72467041015625	1.15081787109375E-05
143.167540638537	-0.721923828125	1.182861328125E-05
143.289610638229	-0.71881103515625	1.21185302734375E-05
143.41168063792	-0.7161865234375	1.2432861328125E-05
143.533750637612	-0.714019775390625	1.2725830078125E-05
143.655820637304	-0.71185302734375	1.29669189453125E-05
143.777890636996	-0.7098388671875	1.3250732421875E-05
143.899960636688	-0.707427978515625	1.35101318359375E-05
144.022030636379	-0.7047119140625	1.3714599609375E-05
144.144100636071	-0.701934814453125	1.39801025390625E-05
144.266170635763	-0.69921875	1.4239501953125E-05
144.388240635455	-0.69793701171875	1.4422607421875E-05
144.510310635147	-0.694671630859375	1.4642333984375E-05
144.632380634838	-0.69256591796875	1.4886474609375E-05
144.75445063453	-0.689971923828125	1.50726318359375E-05
144.876520634222	-0.687286376953125	1.51947021484375E-05
144.998590633914	-0.68560791015625	1.54449462890625E-05
145.120660633606	-0.682098388671875	1.55914306640625E-05
145.242730633297	-0.680328369140625	1.57379150390625E-05
145.364800632989	-0.677734375	1.59515380859375E-05
145.486870632681	-0.67535400390625	1.6070556640625E-05
145.608940632373	-0.672607421875	1.6204833984375E-05
145.731010632065	-0.669891357421875	1.636962890625E-05
145.853080631756	-0.668212890625	1.64794921875E-05
145.975150631448	-0.6656494140625	1.66046142578125E-05
146.09722063114	-0.663177490234375	1.67144775390625E-05
146.219290630832	-0.661224365234375	1.683349609375E-05
146.341360630524	-0.658843994140625	1.69342041015625E-05
146.463430630215	-0.65631103515625	1.70257568359375E-05
146.585500629907	-0.6539306640625	1.71295166015625E-05
146.707570629599	-0.6514892578125	1.72027587890625E-05
146.829640629291	-0.649200439453125	1.7315673828125E-05
146.951710628983	-0.646392822265625	1.737060546875E-05
147.073780628674	-0.64398193359375	1.7437744140625E-05
147.195850628366	-0.640655517578125	1.75323486328125E-05
147.317920628058	-0.639251708984375	1.7578125E-05
147.43999062775	-0.63665771484375	1.76300048828125E-05
147.562060627442	-0.633392333984375	1.76849365234375E-05
147.684130627133	-0.632049560546875	1.7730712890625E-05
147.806200626825	-0.629486083984375	1.77490234375E-05
147.928270626517	-0.62603759765625	1.781005859375E-05
148.050340626209	-0.6236572265625	1.785888671875E-05
148.172410625901	-0.622222900390625	1.78802490234375E-05
148.294480625592	-0.618743896484375	1.7926025390625E-05
148.416550625284	-0.61724853515625	1.7962646484375E-05
148.538620624976	-0.615020751953125	1.79443359375E-05
148.660690624668	-0.61181640625	1.7987060546875E-05
148.78276062436	-0.60980224609375	1.8011474609375E-05
148.904830624051	-0.607666015625	1.796875E-05
149.026900623743	-0.60467529296875	1.8011474609375E-05
149.148970623435	-0.602783203125	1.80084228515625E-05
149.271040623127	-0.600250244140625	1.79962158203125E-05
149.393110622819	-0.5972900390625	1.8011474609375E-05
149.51518062251	-0.59515380859375	1.8023681640625E-05
149.637250622202	-0.592437744140625	1.80023193359375E-05
149.759320621894	-0.59002685546875	1.8011474609375E-05
149.881390621586	-0.587554931640625	1.7999267578125E-05
150.003460621278	-0.585784912109375	1.79718017578125E-05
150.125530620969	-0.5828857421875	1.79962158203125E-05
150.247600620661	-0.58013916015625	1.798095703125E-05
150.369670620353	-0.57763671875	1.79656982421875E-05
150.491740620045	-0.575531005859375	1.79656982421875E-05
150.613810619737	-0.572906494140625	1.79473876953125E-05
150.735880619428	-0.570037841796875	1.7913818359375E-05
150.85795061912	-0.568603515625	1.79107666015625E-05
150.980020618812	-0.56561279296875	1.7913818359375E-05
151.102090618504	-0.56280517578125	1.78619384765625E-05
151.224160618196	-0.561248779296875	1.78497314453125E-05
151.346230617888	-0.5584716796875	1.78497314453125E-05
151.468300617579	-0.555572509765625	1.77947998046875E-05
151.590370617271	-0.553680419921875	1.77825927734375E-05
151.712440616963	-0.55126953125	1.77734375E-05
151.834510616655	-0.548248291015625	1.77459716796875E-05
151.956580616347	-0.5462646484375	1.77154541015625E-05
152.078650616038	-0.543853759765625	1.77093505859375E-05
152.20072061573	-0.5408935546875	1.76666259765625E-05
152.322790615422	-0.53826904296875	1.7608642578125E-05
152.444860615114	-0.536468505859375	1.7620849609375E-05
152.566930614806	-0.533660888671875	1.75933837890625E-05
152.689000614497	-0.5318603515625	1.7523193359375E-05
152.811070614189	-0.529144287109375	1.7535400390625E-05
152.933140613881	-0.52606201171875	1.7486572265625E-05
153.055210613573	-0.523834228515625	1.74652099609375E-05
153.177280613265	-0.521636962890625	1.741943359375E-05
153.299350612956	-0.518798828125	1.7376708984375E-05
153.421420612648	-0.51641845703125	1.73370361328125E-05
153.54349061234	-0.514007568359375	1.7303466796875E-05
153.665560612032	-0.51165771484375	1.72393798828125E-05
153.787630611724	-0.509002685546875	1.72027587890625E-05
153.909700611415	-0.506805419921875	1.71539306640625E-05
154.031770611107	-0.504425048828125	1.7095947265625E-05
154.153840610799	-0.501739501953125	1.70623779296875E-05
154.275910610491	-0.499969482421875	1.7022705078125E-05
154.397980610183	-0.496978759765625	1.69647216796875E-05
154.520050609874	-0.494476318359375	1.68914794921875E-05
154.642120609566	-0.4923095703125	1.68670654296875E-05
154.764190609258	-0.489898681640625	1.67877197265625E-05
154.88626060895	-0.48724365234375	1.67236328125E-05
155.008330608642	-0.48541259765625	1.66748046875E-05
155.130400608333	-0.48260498046875	1.661376953125E-05
155.252470608025	-0.479888916015625	1.65313720703125E-05
155.374540607717	-0.477996826171875	1.64794921875E-05
155.496610607409	-0.475128173828125	1.6436767578125E-05
155.618680607101	-0.472686767578125	1.632080078125E-05
155.740750606792	-0.470703125	1.627197265625E-05
155.862820606484	-0.467376708984375	1.62261962890625E-05
155.984890606176	-0.465606689453125	1.60980224609375E-05
156.106960605868	-0.463592529296875	1.6033935546875E-05
156.22903060556	-0.460540771484375	1.5960693359375E-05
156.351100605251	-0.45831298828125	1.5875244140625E-05
156.473170604943	-0.45623779296875	1.57989501953125E-05
156.595240604635	-0.4534912109375	1.5716552734375E-05
156.717310604327	-0.451141357421875	1.56280517578125E-05
156.839380604019	-0.448944091796875	1.55517578125E-05
156.96145060371	-0.44647216796875	1.5460205078125E-05
157.083520603402	-0.44415283203125	1.536865234375E-05
157.205590603094	-0.441436767578125	1.5283203125E-05
157.327660602786	-0.438934326171875	1.51885986328125E-05
157.449730602478	-0.436309814453125	1.50909423828125E-05
157.571800602169	-0.433990478515625	1.5020751953125E-05
157.693870601861	-0.431121826171875	1.4923095703125E-05
157.815940601553	-0.42864990234375	1.4801025390625E-05
157.938010601245	-0.42657470703125	1.4727783203125E-05
158.060080600937	-0.423583984375	1.46270751953125E-05
158.182150600628	-0.42120361328125	1.451416015625E-05
158.30422060032	-0.419097900390625	1.44317626953125E-05
158.426290600012	-0.4163818359375	1.43310546875E-05
158.548360599704	-0.414520263671875	1.42303466796875E-05
158.670430599396	-0.411773681640625	1.41143798828125E-05
158.792500599087	-0.409149169921875	1.40380859375E-05
158.914570598779	-0.407379150390625	1.3922119140625E-05
159.036640598471	-0.404449462890625	1.38031005859375E-05
159.158710598163	-0.40203857421875	1.37359619140625E-05
159.280780597855	-0.40008544921875	1.3616943359375E-05
159.402850597546	-0.397735595703125	1.35223388671875E-05
159.524920597238	-0.394622802734375	1.3421630859375E-05
159.64699059693	-0.39276123046875	1.33056640625E-05
159.769060596622	-0.390289306640625	1.3214111328125E-05
159.891130596314	-0.387298583984375	1.31134033203125E-05
160.013200596006	-0.38531494140625	1.300048828125E-05
160.135270595697	-0.382080078125	1.28997802734375E-05
160.257340595389	-0.38018798828125	1.2811279296875E-05
160.379410595081	-0.378021240234375	1.26922607421875E-05
160.501480594773	-0.375701904296875	1.26007080078125E-05
160.623550594465	-0.373199462890625	1.24969482421875E-05
160.745620594156	-0.370819091796875	1.2384033203125E-05
160.867690593848	-0.368133544921875	1.229248046875E-05
160.98976059354	-0.365203857421875	1.21978759765625E-05
161.111830593232	-0.36334228515625	1.2091064453125E-05
161.233900592924	-0.360260009765625	1.19873046875E-05
161.355970592615	-0.358551025390625	1.190185546875E-05
161.478040592307	-0.35577392578125	1.1785888671875E-05
161.600110591999	-0.352935791015625	1.16943359375E-05
161.722180591691	-0.351226806640625	1.16058349609375E-05
161.844250591383	-0.348388671875	1.15020751953125E-05
161.966320591074	-0.345703125	1.138916015625E-05
162.088390590766	-0.34332275390625	1.13128662109375E-05
162.210460590458	-0.3409423828125	1.12335205078125E-05
162.33253059015	-0.33856201171875	1.10992431640625E-05
162.454600589842	-0.33648681640625	1.10137939453125E-05
162.576670589533	-0.333648681640625	1.09222412109375E-05
162.698740589225	-0.33160400390625	1.08154296875E-05
162.820810588917	-0.3292236328125	1.0736083984375E-05
162.942880588609	-0.32623291015625	1.06353759765625E-05
163.064950588301	-0.324432373046875	1.05438232421875E-05
163.187020587992	-0.32171630859375	1.04583740234375E-05
163.309090587684	-0.318603515625	1.036376953125E-05
163.431160587376	-0.31683349609375	1.02752685546875E-05
163.553230587068	-0.314178466796875	1.019287109375E-05
163.67530058676	-0.311431884765625	1.01043701171875E-05
163.797370586451	-0.30902099609375	1.00128173828125E-05
163.919440586143	-0.306549072265625	9.9365234375E-06
164.041510585835	-0.304412841796875	9.844970703125E-06
164.163580585527	-0.301788330078125	9.7442626953125E-06
164.285650585219	-0.299041748046875	9.6832275390625E-06
164.40772058491	-0.29718017578125	9.5916748046875E-06
164.529790584602	-0.29486083984375	9.4940185546875E-06
164.651860584294	-0.292083740234375	9.4390869140625E-06
164.773930583986	-0.290252685546875	9.3505859375E-06
164.896000583678	-0.28790283203125	9.2742919921875E-06
165.018070583369	-0.284912109375	9.1766357421875E-06
165.140140583061	-0.282501220703125	9.1217041015625E-06
165.262210582753	-0.280303955078125	9.039306640625E-06
165.384280582445	-0.2779541015625	8.941650390625E-06
165.506350582137	-0.2747802734375	8.8958740234375E-06
165.628420581828	-0.2725830078125	8.819580078125E-06
165.75049058152	-0.270721435546875	8.7554931640625E-06
165.872560581212	-0.26739501953125	8.69140625E-06
165.994630580904	-0.264801025390625	8.6029052734375E-06
166.116700580596	-0.26318359375	8.538818359375E-06
166.238770580287	-0.260467529296875	8.48388671875E-06
166.360840579979	-0.258392333984375	8.404541015625E-06
166.482910579671	-0.2554931640625	8.3465576171875E-06
166.604980579363	-0.253570556640625	8.282470703125E-06
166.727050579055	-0.251190185546875	8.209228515625E-06
166.849120578746	-0.248779296875	8.1573486328125E-06
166.971190578438	-0.24615478515625	8.09326171875E-06
167.09326057813	-0.2435302734375	8.0230712890625E-06
167.215330577822	-0.241363525390625	7.965087890625E-06
167.337400577514	-0.23797607421875	7.9193115234375E-06
167.459470577205	-0.235748291015625	7.8643798828125E-06
167.581540576897	-0.23388671875	7.80029296875E-06
167.703610576589	-0.230926513671875	7.745361328125E-06
167.825680576281	-0.22845458984375	7.70263671875E-06
167.947750575973	-0.226776123046875	7.6171875E-06
168.069820575664	-0.224151611328125	7.5836181640625E-06
168.191890575356	-0.2218017578125	7.5225830078125E-06
168.313960575048	-0.218719482421875	7.45849609375E-06
168.43603057474	-0.217010498046875	7.4188232421875E-06
168.558100574432	-0.214599609375	7.36083984375E-06
168.680170574124	-0.211334228515625	7.305908203125E-06
168.802240573815	-0.20892333984375	7.257080078125E-06
168.924310573507	-0.207061767578125	7.21435546875E-06
169.046380573199	-0.204345703125	7.16552734375E-06
169.168450572891	-0.201324462890625	7.135009765625E-06
169.290520572583	-0.199371337890625	7.0770263671875E-06
169.412590572274	-0.19732666015625	7.0220947265625E-06
169.534660571966	-0.194244384765625	6.99462890625E-06
169.656730571658	-0.191741943359375	6.9427490234375E-06
169.77880057135	-0.1900634765625	6.890869140625E-06
169.900870571042	-0.187591552734375	6.8603515625E-06
170.022940570733	-0.1846923828125	6.817626953125E-06
170.145010570425	-0.18255615234375	6.7840576171875E-06
170.267080570117	-0.1802978515625	6.7352294921875E-06
170.389150569809	-0.17803955078125	6.7047119140625E-06
170.511220569501	-0.17474365234375	6.6619873046875E-06
170.633290569192	-0.172454833984375	6.5948486328125E-06
170.755360568884	-0.170745849609375	6.597900390625E-06
170.877430568576	-0.16741943359375	6.55517578125E-06
170.999500568268	-0.164825439453125	6.524658203125E-06
171.12157056796	-0.16351318359375	6.524658203125E-06
171.243640567651	-0.16082763671875	6.45751953125E-06
171.365710567343	-0.158416748046875	6.4300537109375E-06
171.487780567035	-0.1558837890625	6.3995361328125E-06
171.609850566727	-0.1534423828125	6.3629150390625E-06
171.731920566419	-0.150848388671875	6.3385009765625E-06
171.85399056611	-0.148040771484375	6.317138671875E-06
171.976060565802	-0.145538330078125	6.2835693359375E-06
172.098130565494	-0.142791748046875	6.256103515625E-06
172.220200565186	-0.14141845703125	6.2347412109375E-06
172.342270564878	-0.13873291015625	6.1859130859375E-06
172.464340564569	-0.136077880859375	6.1767578125E-06
172.586410564261	-0.13330078125	6.15234375E-06
172.708480563953	-0.13092041015625	6.1187744140625E-06
172.830550563645	-0.12908935546875	6.1004638671875E-06
172.952620563337	-0.125823974609375	6.085205078125E-06
173.074690563028	-0.123382568359375	6.0455322265625E-06
173.19676056272	-0.121246337890625	6.0211181640625E-06
173.318830562412	-0.119110107421875	6.0089111328125E-06
173.440900562104	-0.115814208984375	6.0150146484375E-06
173.562970561796	-0.11370849609375	5.9783935546875E-06
173.685040561487	-0.112060546875	5.9356689453125E-06
173.807110561179	-0.109527587890625	5.926513671875E-06
173.929180560871	-0.107147216796875	5.9051513671875E-06
174.051250560563	-0.10455322265625	5.8685302734375E-06
174.173320560255	-0.10211181640625	5.8624267578125E-06
174.295390559946	-0.099151611328125	5.816650390625E-06
174.417460559638	-0.0965576171875	5.804443359375E-06
174.53953055933	-0.09405517578125	5.7830810546875E-06
174.661600559022	-0.0916748046875	5.7769775390625E-06
174.783670558714	-0.0894775390625	5.755615234375E-06
174.905740558405	-0.08758544921875	5.7464599609375E-06
175.027810558097	-0.084228515625	5.7159423828125E-06
175.149880557789	-0.0828857421875	5.712890625E-06
175.271950557481	-0.079803466796875	5.6854248046875E-06
175.394020557173	-0.077178955078125	5.65185546875E-06
175.516090556864	-0.07501220703125	5.6396484375E-06
175.638160556556	-0.072296142578125	5.6121826171875E-06
175.760230556248	-0.070648193359375	5.609130859375E-06
175.88230055594	-0.06719970703125	5.5694580078125E-06
176.004370555632	-0.065765380859375	5.5816650390625E-06
176.126440555323	-0.062530517578125	5.5450439453125E-06
176.248510555015	-0.060882568359375	5.4931640625E-06
176.370580554707	-0.0579833984375	5.5145263671875E-06
176.492650554399	-0.055023193359375	5.4901123046875E-06
176.614720554091	-0.053619384765625	5.4962158203125E-06
176.736790553783	-0.050079345703125	5.4656982421875E-06
176.858860553474	-0.0477691650390625	5.462646484375E-06
176.980930553166	-0.04578857421875	5.45654296875E-06
177.103000552858	-0.0431671142578125	5.4351806640625E-06
177.22507055255	-0.0410064697265625	5.4107666015625E-06
177.347140552242	-0.0384765625	5.4046630859375E-06
177.469210551933	-0.0358734130859375	5.364990234375E-06
177.591280551625	-0.033013916015625	5.352783203125E-06
177.713350551317	-0.03045654296875	5.3619384765625E-06
177.835420551009	-0.027783203125	5.3466796875E-06
177.957490550701	-0.02554931640625	5.322265625E-06
178.079560550392	-0.0239166259765625	5.316162109375E-06
178.201630550084	-0.020733642578125	5.3009033203125E-06
178.323700549776	-0.0188201904296875	5.2886962890625E-06
178.445770549468	-0.015899658203125	5.2734375E-06
178.56784054916	-0.013519287109375	5.267333984375E-06
178.689910548851	-0.011370849609375	5.2276611328125E-06
178.811980548543	-0.00884399414062501	5.2215576171875E-06
178.934050548235	-0.00604858398437499	5.2154541015625E-06
179.056120547927	-0.00368652343750001	5.2032470703125E-06
179.178190547619	-0.00168762207031251	5.1788330078125E-06
179.30026054731	0.000830078124999994	5.1727294921875E-06
179.422330547002	0.00324096679687499	5.1544189453125E-06
179.544400546694	0.00612792968750001	5.145263671875E-06
179.666470546386	0.00847473144531249	5.1422119140625E-06
179.788540546078	0.0107635498046875	5.1177978515625E-06
179.910610545769	0.012933349609375	5.1025390625E-06
180.032680545461	0.0152557373046875	5.096435546875E-06
180.154750545153	0.018206787109375	5.084228515625E-06
180.276820544845	0.02034912109375	5.059814453125E-06
180.398890544537	0.02271728515625	5.0628662109375E-06
180.520960544228	0.02564697265625	5.0384521484375E-06
