Time (s)	WE(1).Potential (V)	WE(1).Current (A)
254.256077358065	-0.425018310546875	7.8277587890625E-07
254.378147357757	-0.42138671875	1.373291015625E-06
254.500217357449	-0.41943359375	1.74102783203125E-06
254.622287357141	-0.4180908203125	2.000732421875E-06
254.744357356832	-0.414642333984375	2.21343994140625E-06
254.866427356524	-0.411956787109375	2.35504150390625E-06
254.988497356216	-0.41094970703125	2.46337890625E-06
255.110567355908	-0.407196044921875	2.57049560546875E-06
255.2326373556	-0.405059814453125	2.6617431640625E-06
255.354707355291	-0.402679443359375	2.71881103515625E-06
255.476777354983	-0.40093994140625	2.78564453125E-06
255.598847354675	-0.398193359375	2.84027099609375E-06
255.720917354367	-0.395477294921875	2.87109375E-06
255.842987354059	-0.393798828125	2.877197265625E-06
255.96505735375	-0.39117431640625	2.95684814453125E-06
256.087127353442	-0.388427734375	2.98004150390625E-06
256.209197353134	-0.386138916015625	2.9949951171875E-06
256.331267352826	-0.38348388671875	3.038330078125E-06
256.453337352518	-0.38104248046875	3.0914306640625E-06
256.575407352209	-0.378387451171875	3.1005859375E-06
256.697477351901	-0.375457763671875	3.13720703125E-06
256.819547351593	-0.3736572265625	3.131103515625E-06
256.941617351285	-0.37109375	3.1646728515625E-06
257.063687350977	-0.368560791015625	3.1829833984375E-06
257.185757350668	-0.3662109375	3.167724609375E-06
257.30782735036	-0.36383056640625	3.1951904296875E-06
257.429897350052	-0.361297607421875	3.2135009765625E-06
257.551967349744	-0.358856201171875	3.1982421875E-06
257.674037349436	-0.356536865234375	3.216552734375E-06
257.796107349127	-0.352874755859375	3.216552734375E-06
257.918177348819	-0.3511962890625	3.2257080078125E-06
258.040247348511	-0.349273681640625	3.2257080078125E-06
258.162317348203	-0.346832275390625	3.23486328125E-06
258.284387347895	-0.34326171875	3.240966796875E-06
258.406457347586	-0.341827392578125	3.2318115234375E-06
258.528527347278	-0.339447021484375	3.2257080078125E-06
258.65059734697	-0.336151123046875	3.2470703125E-06
258.772667346662	-0.334075927734375	3.2196044921875E-06
258.894737346354	-0.332000732421875	3.216552734375E-06
259.016807346045	-0.32855224609375	3.22265625E-06
259.138877345737	-0.32672119140625	3.2073974609375E-06
259.260947345429	-0.324432373046875	3.204345703125E-06
259.383017345121	-0.322265625	3.2012939453125E-06
259.505087344813	-0.319732666015625	3.2012939453125E-06
259.627157344504	-0.31695556640625	3.192138671875E-06
259.749227344196	-0.315216064453125	3.1707763671875E-06
259.871297343888	-0.3125	3.1585693359375E-06
259.99336734358	-0.309539794921875	3.1768798828125E-06
260.115437343272	-0.306854248046875	3.1494140625E-06
260.237507342963	-0.30517578125	3.1402587890625E-06
260.359577342655	-0.302276611328125	3.131103515625E-06
260.481647342347	-0.300445556640625	3.1280517578125E-06
260.603717342039	-0.297698974609375	3.11279296875E-06
260.725787341731	-0.2950439453125	3.082275390625E-06
260.847857341422	-0.292999267578125	3.0975341796875E-06
260.969927341114	-0.290313720703125	3.082275390625E-06
261.091997340806	-0.28759765625	3.0609130859375E-06
261.214067340498	-0.285430908203125	3.06396484375E-06
261.33613734019	-0.283050537109375	3.0364990234375E-06
261.458207339881	-0.2802734375	3.057861328125E-06
261.580277339573	-0.278167724609375	3.045654296875E-06
261.702347339265	-0.2747802734375	3.0181884765625E-06
261.824417338957	-0.272735595703125	3.009033203125E-06
261.946487338649	-0.270965576171875	3.0242919921875E-06
262.068557338341	-0.2686767578125	2.996826171875E-06
262.190627338032	-0.265289306640625	3.0029296875E-06
262.312697337724	-0.263641357421875	2.984619140625E-06
262.434767337416	-0.261383056640625	2.9754638671875E-06
262.556837337108	-0.25811767578125	2.9693603515625E-06
262.6789073368	-0.256103515625	2.9571533203125E-06
262.800977336491	-0.253936767578125	2.947998046875E-06
262.923047336183	-0.251708984375	2.960205078125E-06
263.045117335875	-0.248687744140625	2.9388427734375E-06
263.167187335567	-0.246734619140625	2.9296875E-06
263.289257335259	-0.244232177734375	2.9266357421875E-06
263.41132733495	-0.2410888671875	2.9296875E-06
263.533397334642	-0.23883056640625	2.94189453125E-06
263.655467334334	-0.236785888671875	2.9022216796875E-06
263.777537334026	-0.23345947265625	2.899169921875E-06
263.899607333718	-0.23126220703125	2.8778076171875E-06
264.021677333409	-0.228759765625	2.880859375E-06
264.143747333101	-0.226104736328125	2.880859375E-06
264.265817332793	-0.223724365234375	2.862548828125E-06
264.387887332485	-0.22235107421875	2.880859375E-06
264.509957332177	-0.21893310546875	2.8533935546875E-06
264.632027331868	-0.216827392578125	2.8564453125E-06
264.75409733156	-0.214447021484375	2.8472900390625E-06
264.876167331252	-0.21258544921875	2.8564453125E-06
264.998237330944	-0.209991455078125	2.8411865234375E-06
265.120307330636	-0.20654296875	2.8350830078125E-06
265.242377330327	-0.20452880859375	2.8411865234375E-06
265.364447330019	-0.202880859375	2.8411865234375E-06
265.486517329711	-0.199249267578125	2.81982421875E-06
265.608587329403	-0.196807861328125	2.81982421875E-06
265.730657329095	-0.195037841796875	2.825927734375E-06
265.852727328786	-0.1923828125	2.8228759765625E-06
265.974797328478	-0.1898193359375	2.8228759765625E-06
266.09686732817	-0.18707275390625	2.8167724609375E-06
266.218937327862	-0.1856689453125	2.8045654296875E-06
266.341007327554	-0.18304443359375	2.7801513671875E-06
266.463077327245	-0.180206298828125	2.83203125E-06
266.585147326937	-0.1781005859375	2.813720703125E-06
266.707217326629	-0.17578125	2.8228759765625E-06
266.829287326321	-0.1727294921875	2.8167724609375E-06
266.951357326013	-0.17010498046875	2.83203125E-06
267.073427325704	-0.167724609375	2.825927734375E-06
267.195497325396	-0.165557861328125	2.825927734375E-06
267.317567325088	-0.1629638671875	2.83203125E-06
267.43963732478	-0.1607666015625	2.850341796875E-06
267.561707324472	-0.158111572265625	2.84423828125E-06
267.683777324163	-0.15631103515625	2.81982421875E-06
267.805847323855	-0.15411376953125	2.83203125E-06
267.927917323547	-0.150726318359375	2.84423828125E-06
268.049987323239	-0.149078369140625	2.825927734375E-06
268.172057322931	-0.14593505859375	2.825927734375E-06
268.294127322622	-0.143646240234375	2.84423828125E-06
268.416197322314	-0.14154052734375	2.84423828125E-06
268.538267322006	-0.13824462890625	2.8656005859375E-06
268.660337321698	-0.136810302734375	2.8594970703125E-06
268.78240732139	-0.1334228515625	2.84423828125E-06
268.904477321081	-0.131500244140625	2.850341796875E-06
269.026547320773	-0.129364013671875	2.8533935546875E-06
269.148617320465	-0.1259765625	2.89306640625E-06
269.270687320157	-0.124847412109375	2.862548828125E-06
269.392757319849	-0.121856689453125	2.8717041015625E-06
269.51482731954	-0.1192626953125	2.86865234375E-06
269.636897319232	-0.117340087890625	2.8594970703125E-06
269.758967318924	-0.11419677734375	2.8900146484375E-06
269.881037318616	-0.112548828125	2.880859375E-06
270.003107318308	-0.109466552734375	2.880859375E-06
270.125177317999	-0.10662841796875	2.9022216796875E-06
270.247247317691	-0.104095458984375	2.89306640625E-06
270.369317317383	-0.101654052734375	2.8900146484375E-06
270.491387317075	-0.099639892578125	2.899169921875E-06
270.613457316767	-0.09747314453125	2.9205322265625E-06
270.735527316459	-0.095001220703125	2.9052734375E-06
270.85759731615	-0.0928955078125	2.911376953125E-06
270.979667315842	-0.090484619140625	2.923583984375E-06
271.101737315534	-0.087982177734375	2.9052734375E-06
271.223807315226	-0.085693359375	2.9205322265625E-06
271.345877314918	-0.082733154296875	2.9144287109375E-06
271.467947314609	-0.080902099609375	2.911376953125E-06
271.590017314301	-0.078155517578125	2.9266357421875E-06
271.712087313993	-0.074859619140625	2.935791015625E-06
271.834157313685	-0.073028564453125	2.9205322265625E-06
271.956227313377	-0.070556640625	2.9388427734375E-06
272.078297313068	-0.06768798828125	2.935791015625E-06
272.20036731276	-0.0662841796875	2.935791015625E-06
272.322437312452	-0.062957763671875	2.9296875E-06
272.444507312144	-0.06097412109375	2.947998046875E-06
272.566577311836	-0.05877685546875	2.9449462890625E-06
272.688647311527	-0.056365966796875	2.91748046875E-06
272.810717311219	-0.05401611328125	2.960205078125E-06
272.932787310911	-0.051116943359375	2.960205078125E-06
273.054857310603	-0.0480804443359375	2.9571533203125E-06
273.176927310295	-0.046392822265625	2.9754638671875E-06
273.298997309986	-0.04344482421875	2.978515625E-06
273.421067309678	-0.0406005859375	2.9815673828125E-06
273.54313730937	-0.0385040283203125	2.9754638671875E-06
273.665207309062	-0.035638427734375	2.9693603515625E-06
273.787277308754	-0.0331634521484375	2.996826171875E-06
273.909347308445	-0.0307098388671875	3.0029296875E-06
274.031417308137	-0.0287567138671875	3.0029296875E-06
274.153487307829	-0.026605224609375	2.9937744140625E-06
274.275557307521	-0.024310302734375	3.0029296875E-06
274.397627307213	-0.022027587890625	2.9876708984375E-06
274.519697306904	-0.0194427490234375	2.996826171875E-06
274.641767306596	-0.0162445068359375	2.996826171875E-06
274.763837306288	-0.014501953125	2.9937744140625E-06
274.88590730598	-0.011334228515625	3.009033203125E-06
275.007977305672	-0.008837890625	3.021240234375E-06
275.130047305363	-0.006591796875	3.0059814453125E-06
275.252117305055	-0.00411071777343749	3.0120849609375E-06
275.374187304747	-0.0014068603515625	3.033447265625E-06
275.496257304439	0.000936889648437494	3.0303955078125E-06
275.618327304131	0.0025054931640625	3.0242919921875E-06
275.740397303822	0.0049468994140625	3.0181884765625E-06
275.862467303514	0.008038330078125	3.021240234375E-06
275.984537303206	0.009722900390625	3.0120849609375E-06
276.106607302898	0.0129608154296875	3.0364990234375E-06
276.22867730259	0.01488037109375	3.033447265625E-06
276.350747302281	0.017462158203125	3.033447265625E-06
276.472817301973	0.020367431640625	3.03955078125E-06
276.594887301665	0.02291259765625	3.0303955078125E-06
276.716957301357	0.0253082275390625	3.0426025390625E-06
276.839027301049	0.027532958984375	3.045654296875E-06
276.96109730074	0.03038330078125	3.0426025390625E-06
277.083167300432	0.032470703125	3.03955078125E-06
277.205237300124	0.0345123291015625	3.0609130859375E-06
277.327307299816	0.0376312255859375	3.0548095703125E-06
277.449377299508	0.03912353515625	3.033447265625E-06
277.571447299199	0.0414154052734375	3.0364990234375E-06
277.693517298891	0.0439483642578125	3.0426025390625E-06
277.815587298583	0.0466094970703125	3.03955078125E-06
277.937657298275	0.04925537109375	3.045654296875E-06
278.059727297967	0.051971435546875	3.03955078125E-06
278.181797297658	0.05413818359375	3.0426025390625E-06
278.30386729735	0.0567626953125	3.0548095703125E-06
278.425937297042	0.05841064453125	3.03955078125E-06
278.548007296734	0.061767578125	3.0364990234375E-06
278.670077296426	0.063751220703125	3.0517578125E-06
278.792147296117	0.065582275390625	3.045654296875E-06
278.914217295809	0.06878662109375	3.0364990234375E-06
279.036287295501	0.070587158203125	3.0548095703125E-06
279.158357295193	0.0736083984375	3.0426025390625E-06
279.280427294885	0.070556640625	2.972412109375E-06
279.402497294577	0.067901611328125	2.8839111328125E-06
279.524567294268	0.066558837890625	2.8900146484375E-06
279.64663729396	0.063751220703125	2.838134765625E-06
279.768707293652	0.060882568359375	2.8106689453125E-06
279.890777293344	0.058990478515625	2.789306640625E-06
280.012847293036	0.05584716796875	2.752685546875E-06
280.134917292727	0.054443359375	2.7496337890625E-06
280.256987292419	0.05108642578125	2.7099609375E-06
280.379057292111	0.0487579345703125	2.67333984375E-06
280.501127291803	0.0473388671875	2.6702880859375E-06
280.623197291495	0.0438385009765625	2.64892578125E-06
280.745267291186	0.04161376953125	2.630615234375E-06
280.867337290878	0.03995361328125	2.6092529296875E-06
280.98940729057	0.0368072509765625	2.587890625E-06
281.111477290262	0.034722900390625	2.5604248046875E-06
281.233547289954	0.0322357177734375	2.5482177734375E-06
281.355617289645	0.03006591796875	2.5238037109375E-06
281.477687289337	0.0279052734375	2.4932861328125E-06
281.599757289029	0.025115966796875	2.496337890625E-06
281.721827288721	0.022802734375	2.4688720703125E-06
281.843897288413	0.020257568359375	2.4444580078125E-06
281.965967288104	0.0170318603515625	2.4261474609375E-06
282.088037287796	0.015374755859375	2.44140625E-06
282.210107287488	0.0122894287109375	2.3834228515625E-06
282.33217728718	0.010296630859375	2.374267578125E-06
282.454247286872	0.0079010009765625	2.349853515625E-06
282.576317286563	0.00478210449218749	2.362060546875E-06
282.698387286255	0.003460693359375	2.313232421875E-06
282.820457285947	0.000158691406249994	2.3101806640625E-06
282.942527285639	-0.00198974609374999	2.3040771484375E-06
283.064597285331	-0.00451049804687501	2.2705078125E-06
283.186667285022	-0.00717773437499999	2.2552490234375E-06
283.308737284714	-0.0088348388671875	2.2369384765625E-06
283.430807284406	-0.012261962890625	2.2247314453125E-06
283.552877284098	-0.014404296875	2.2064208984375E-06
283.67494728379	-0.016180419921875	2.178955078125E-06
283.797017283481	-0.01917724609375	2.1575927734375E-06
283.919087283173	-0.0213897705078125	2.1392822265625E-06
284.041157282865	-0.023748779296875	2.13623046875E-06
284.163227282557	-0.0258880615234375	2.1087646484375E-06
284.285297282249	-0.0282470703125	2.0965576171875E-06
284.40736728194	-0.0313262939453125	2.081298828125E-06
284.529437281632	-0.0336944580078125	2.081298828125E-06
284.651507281324	-0.0361419677734375	2.0416259765625E-06
284.773577281016	-0.0386962890625	2.0294189453125E-06
284.895647280708	-0.0416107177734375	2.001953125E-06
285.017717280399	-0.043865966796875	1.9866943359375E-06
285.139787280091	-0.045977783203125	2.001953125E-06
285.261857279783	-0.0481536865234375	1.9805908203125E-06
285.383927279475	-0.05047607421875	1.9439697265625E-06
285.505997279167	-0.053436279296875	1.9256591796875E-06
285.628067278858	-0.055572509765625	1.9317626953125E-06
285.75013727855	-0.057952880859375	1.8829345703125E-06
285.872207278242	-0.061126708984375	1.8798828125E-06
285.994277277934	-0.063079833984375	1.85546875E-06
286.116347277626	-0.065948486328125	1.812744140625E-06
286.238417277317	-0.067840576171875	1.85546875E-06
286.360487277009	-0.07073974609375	1.806640625E-06
286.482557276701	-0.07354736328125	1.7822265625E-06
286.604627276393	-0.07489013671875	1.79443359375E-06
286.726697276085	-0.07843017578125	1.77001953125E-06
286.848767275776	-0.080169677734375	1.74560546875E-06
286.970837275468	-0.08294677734375	1.751708984375E-06
287.09290727516	-0.085296630859375	1.702880859375E-06
287.214977274852	-0.08709716796875	1.69677734375E-06
287.337047274544	-0.090576171875	1.6998291015625E-06
287.459117274236	-0.092926025390625	1.6571044921875E-06
287.581187273927	-0.094635009765625	1.666259765625E-06
287.703257273619	-0.097198486328125	1.64794921875E-06
287.825327273311	-0.09979248046875	1.6265869140625E-06
287.947397273003	-0.101593017578125	1.6021728515625E-06
288.069467272695	-0.10418701171875	1.5869140625E-06
288.191537272386	-0.106536865234375	1.580810546875E-06
288.313607272078	-0.10919189453125	1.544189453125E-06
288.43567727177	-0.11199951171875	1.5380859375E-06
288.557747271462	-0.1143798828125	1.5228271484375E-06
288.679817271154	-0.1168212890625	1.4923095703125E-06
288.801887270845	-0.119781494140625	1.47705078125E-06
288.923957270537	-0.122161865234375	1.47705078125E-06
289.046027270229	-0.123565673828125	1.4495849609375E-06
289.168097269921	-0.126373291015625	1.4404296875E-06
289.290167269613	-0.128753662109375	1.416015625E-06
289.412237269304	-0.1319580078125	1.4007568359375E-06
289.534307268996	-0.133697509765625	1.3824462890625E-06
289.656377268688	-0.135894775390625	1.361083984375E-06
289.77844726838	-0.138946533203125	1.3427734375E-06
289.900517268072	-0.140655517578125	1.324462890625E-06
290.022587267763	-0.143798828125	1.3153076171875E-06
290.144657267455	-0.14556884765625	1.2847900390625E-06
290.266727267147	-0.147918701171875	1.28173828125E-06
290.388797266839	-0.15142822265625	1.263427734375E-06
290.510867266531	-0.15338134765625	1.239013671875E-06
290.632937266222	-0.1553955078125	1.220703125E-06
290.755007265914	-0.157958984375	1.202392578125E-06
290.877077265606	-0.161285400390625	1.171875E-06
290.999147265298	-0.16357421875	1.1688232421875E-06
291.12121726499	-0.1654052734375	1.153564453125E-06
291.243287264681	-0.167938232421875	1.1322021484375E-06
291.365357264373	-0.170654296875	1.1138916015625E-06
291.487427264065	-0.172454833984375	1.1016845703125E-06
291.609497263757	-0.17498779296875	1.0772705078125E-06
291.731567263449	-0.17742919921875	1.0223388671875E-06
291.85363726314	-0.179901123046875	1.03759765625E-06
291.975707262832	-0.18304443359375	1.01318359375E-06
292.097777262524	-0.18548583984375	1.0040283203125E-06
292.219847262216	-0.18695068359375	9.857177734375E-07
292.341917261908	-0.19024658203125	9.521484375E-07
292.463987261599	-0.192413330078125	9.46044921875E-07
292.586057261291	-0.194305419921875	9.307861328125E-07
292.708127260983	-0.196746826171875	9.09423828125E-07
292.830197260675	-0.199859619140625	8.856201171875E-07
292.952267260367	-0.201904296875	8.6883544921875E-07
293.074337260058	-0.205322265625	8.2916259765625E-07
293.19640725975	-0.207489013671875	8.1939697265625E-07
293.318477259442	-0.209442138671875	8.0841064453125E-07
293.440547259134	-0.21148681640625	7.7850341796875E-07
293.562617258826	-0.214141845703125	7.611083984375E-07
293.684687258517	-0.21697998046875	7.4493408203125E-07
293.806757258209	-0.219451904296875	7.0831298828125E-07
293.928827257901	-0.221710205078125	6.903076171875E-07
294.050897257593	-0.224334716796875	6.707763671875E-07
294.172967257285	-0.226409912109375	6.5460205078125E-07
294.295037256976	-0.229766845703125	6.1431884765625E-07
294.417107256668	-0.230987548828125	6.036376953125E-07
294.53917725636	-0.234039306640625	6.04248046875E-07
294.661247256052	-0.236175537109375	5.37109375E-07
294.783317255744	-0.238433837890625	5.13916015625E-07
294.905387255435	-0.2408447265625	4.888916015625E-07
295.027457255127	-0.243621826171875	4.522705078125E-07
295.149527254819	-0.24652099609375	4.2999267578125E-07
295.271597254511	-0.249267578125	3.948974609375E-07
295.393667254203	-0.2510986328125	3.5736083984375E-07
295.515737253894	-0.253814697265625	3.3905029296875E-07
295.637807253586	-0.2562255859375	2.96630859375E-07
295.759877253278	-0.259033203125	2.60009765625E-07
295.88194725297	-0.261077880859375	2.45361328125E-07
296.004017252662	-0.2630615234375	1.898193359375E-07
296.126087252354	-0.26629638671875	1.45263671875E-07
296.248157252045	-0.268585205078125	1.202392578125E-07
296.370227251737	-0.27008056640625	7.8125E-08
296.492297251429	-0.27313232421875	1.64794921875E-08
296.614367251121	-0.275543212890625	-1.708984375E-08
296.736437250813	-0.277435302734375	-5.523681640625E-08
296.858507250504	-0.28076171875	-1.11083984375E-07
296.980577250196	-0.2840576171875	-1.91650390625E-07
297.102647249888	-0.284423828125	-1.983642578125E-07
297.22471724958	-0.287689208984375	-2.6885986328125E-07
297.346787249272	-0.28973388671875	-3.13720703125E-07
297.468857248963	-0.291961669921875	-3.7139892578125E-07
297.590927248655	-0.29449462890625	-4.45556640625E-07
297.712997248347	-0.2974853515625	-5.04150390625E-07
297.835067248039	-0.29949951171875	-5.5511474609375E-07
297.957137247731	-0.301666259765625	-6.3201904296875E-07
298.079207247422	-0.304046630859375	-7.1014404296875E-07
298.201277247114	-0.306793212890625	-7.7484130859375E-07
298.323347246806	-0.3094482421875	-8.7432861328125E-07
298.445417246498	-0.31195068359375	-9.3841552734375E-07
298.56748724619	-0.314361572265625	-1.024169921875E-06
298.689557245881	-0.31689453125	-1.12091064453125E-06
298.811627245573	-0.319000244140625	-1.20880126953125E-06
298.933697245265	-0.32147216796875	-1.2945556640625E-06
299.055767244957	-0.324371337890625	-1.41265869140625E-06
299.177837244649	-0.326385498046875	-1.51702880859375E-06
299.29990724434	-0.327789306640625	-1.61102294921875E-06
299.421977244032	-0.33013916015625	-1.71234130859375E-06
299.544047243724	-0.33416748046875	-1.85760498046875E-06
299.666117243416	-0.336334228515625	-1.96044921875E-06
299.788187243108	-0.3380126953125	-2.1002197265625E-06
299.910257242799	-0.34149169921875	-2.23724365234375E-06
300.032327242491	-0.34246826171875	-2.36572265625E-06
300.154397242183	-0.34503173828125	-2.51251220703125E-06
300.276467241875	-0.348876953125	-2.640380859375E-06
300.398537241567	-0.350738525390625	-2.7899169921875E-06
300.520607241258	-0.35284423828125	-2.93609619140625E-06
300.64267724095	-0.355560302734375	-3.09173583984375E-06
300.764747240642	-0.35784912109375	-3.2623291015625E-06
300.886817240334	-0.361083984375	-3.4271240234375E-06
301.008887240026	-0.36273193359375	-3.582763671875E-06
301.130957239717	-0.365203857421875	-3.741455078125E-06
301.253027239409	-0.3680419921875	-3.900146484375E-06
301.375097239101	-0.370025634765625	-4.0618896484375E-06
301.497167238793	-0.37249755859375	-4.21142578125E-06
301.619237238485	-0.374755859375	-4.3548583984375E-06
301.741307238176	-0.377197265625	-4.50439453125E-06
301.863377237868	-0.37994384765625	-4.67529296875E-06
301.98544723756	-0.38226318359375	-4.78515625E-06
302.107517237252	-0.384521484375	-4.9224853515625E-06
302.229587236944	-0.38714599609375	-5.047607421875E-06
302.351657236635	-0.38995361328125	-5.169677734375E-06
302.473727236327	-0.391937255859375	-5.2978515625E-06
302.595797236019	-0.394775390625	-5.389404296875E-06
302.717867235711	-0.397125244140625	-5.4901123046875E-06
302.839937235403	-0.399078369140625	-5.560302734375E-06
302.962007235094	-0.40240478515625	-5.6793212890625E-06
303.084077234786	-0.404296875	-5.7281494140625E-06
303.206147234478	-0.407623291015625	-5.8502197265625E-06
303.32821723417	-0.410003662109375	-5.8837890625E-06
303.450287233862	-0.411468505859375	-5.938720703125E-06
303.572357233553	-0.41375732421875	-6.011962890625E-06
303.694427233245	-0.417327880859375	-6.0546875E-06
303.816497232937	-0.41912841796875	-6.1004638671875E-06
303.938567232629	-0.422271728515625	-6.1492919921875E-06
304.060637232321	-0.42425537109375	-6.207275390625E-06
304.182707232012	-0.426971435546875	-6.219482421875E-06
304.304777231704	-0.42950439453125	-6.2774658203125E-06
304.426847231396	-0.43121337890625	-6.3079833984375E-06
304.548917231088	-0.434295654296875	-6.3201904296875E-06
304.67098723078	-0.43646240234375	-6.353759765625E-06
304.793057230472	-0.439422607421875	-6.40869140625E-06
304.915127230163	-0.441375732421875	-6.4208984375E-06
305.037197229855	-0.44354248046875	-6.427001953125E-06
305.159267229547	-0.445587158203125	-6.50634765625E-06
305.281337229239	-0.4486083984375	-6.536865234375E-06
305.403407228931	-0.45062255859375	-6.5765380859375E-06
305.525477228622	-0.453338623046875	-6.6162109375E-06
305.647547228314	-0.455596923828125	-6.6436767578125E-06
305.769617228006	-0.4580078125	-6.6925048828125E-06
305.891687227698	-0.461151123046875	-6.77490234375E-06
306.01375722739	-0.46270751953125	-6.7962646484375E-06
306.135827227081	-0.46514892578125	-6.8603515625E-06
306.257897226773	-0.46868896484375	-6.9183349609375E-06
306.379967226465	-0.470062255859375	-6.9610595703125E-06
306.502037226157	-0.47235107421875	-7.03125E-06
306.624107225849	-0.47607421875	-7.1136474609375E-06
306.74617722554	-0.477081298828125	-7.1746826171875E-06
306.868247225232	-0.479766845703125	-7.257080078125E-06
306.990317224924	-0.4830322265625	-7.3577880859375E-06
307.112387224616	-0.4857177734375	-7.427978515625E-06
307.234457224308	-0.4874267578125	-7.5164794921875E-06
307.356527223999	-0.489959716796875	-7.62939453125E-06
307.478597223691	-0.492279052734375	-7.7484130859375E-06
307.600667223383	-0.49481201171875	-7.8033447265625E-06
307.722737223075	-0.496826171875	-7.9315185546875E-06
307.844807222767	-0.499908447265625	-8.026123046875E-06
307.966877222458	-0.5023193359375	-8.1207275390625E-06
308.08894722215	-0.504119873046875	-8.2611083984375E-06
308.211017221842	-0.506805419921875	-8.36181640625E-06
308.333087221534	-0.509521484375	-8.4716796875E-06
308.455157221226	-0.51153564453125	-8.599853515625E-06
308.577227220917	-0.51385498046875	-8.72802734375E-06
308.699297220609	-0.516815185546875	-8.8470458984375E-06
308.821367220301	-0.5186767578125	-9.002685546875E-06
308.943437219993	-0.521148681640625	-9.1339111328125E-06
309.065507219685	-0.52349853515625	-9.271240234375E-06
309.187577219376	-0.526031494140625	-9.4390869140625E-06
309.309647219068	-0.528656005859375	-9.5733642578125E-06
309.43171721876	-0.531341552734375	-9.7198486328125E-06
309.553787218452	-0.533294677734375	-9.869384765625E-06
309.675857218144	-0.536224365234375	-1.002197265625E-05
309.797927217835	-0.5391845703125	-1.0174560546875E-05
309.919997217527	-0.540679931640625	-1.03363037109375E-05
310.042067217219	-0.543670654296875	-1.05255126953125E-05
310.164137216911	-0.546478271484375	-1.0675048828125E-05
310.286207216603	-0.54815673828125	-1.08306884765625E-05
310.408277216294	-0.550933837890625	-1.1041259765625E-05
310.530347215986	-0.554046630859375	-1.1199951171875E-05
310.652417215678	-0.55517578125	-1.13555908203125E-05
310.77448721537	-0.557891845703125	-1.15814208984375E-05
310.896557215062	-0.560791015625	-1.177978515625E-05
311.018627214753	-0.563323974609375	-1.1968994140625E-05
311.140697214445	-0.565093994140625	-1.21856689453125E-05
311.262767214137	-0.567901611328125	-1.236572265625E-05
311.384837213829	-0.571044921875	-1.25732421875E-05
311.506907213521	-0.572540283203125	-1.27960205078125E-05
311.628977213212	-0.5751953125	-1.30126953125E-05
311.751047212904	-0.577178955078125	-1.32354736328125E-05
311.873117212596	-0.580047607421875	-1.3470458984375E-05
311.995187212288	-0.58245849609375	-1.36871337890625E-05
312.11725721198	-0.5853271484375	-1.39312744140625E-05
312.239327211671	-0.58770751953125	-1.4166259765625E-05
312.361397211363	-0.58990478515625	-1.441650390625E-05
312.483467211055	-0.59295654296875	-1.46514892578125E-05
312.605537210747	-0.594482421875	-1.49383544921875E-05
312.727607210439	-0.597259521484375	-1.52099609375E-05
312.84967721013	-0.60015869140625	-1.5447998046875E-05
312.971747209822	-0.60260009765625	-1.57470703125E-05
313.093817209514	-0.6046142578125	-1.60308837890625E-05
313.215887209206	-0.607421875	-1.62933349609375E-05
313.337957208898	-0.609527587890625	-1.66015625E-05
313.46002720859	-0.611785888671875	-1.6937255859375E-05
313.582097208281	-0.61480712890625	-1.71875E-05
313.704167207973	-0.6165771484375	-1.75201416015625E-05
313.826237207665	-0.61895751953125	-1.788330078125E-05
313.948307207357	-0.6219482421875	-1.81610107421875E-05
314.070377207049	-0.62371826171875	-1.85028076171875E-05
314.19244720674	-0.626129150390625	-1.884765625E-05
314.314517206432	-0.628936767578125	-1.91680908203125E-05
314.436587206124	-0.630889892578125	-1.954345703125E-05
314.558657205816	-0.6331787109375	-1.99188232421875E-05
314.680727205508	-0.636077880859375	-2.0269775390625E-05
314.802797205199	-0.63800048828125	-2.06573486328125E-05
314.924867204891	-0.640899658203125	-2.10479736328125E-05
315.046937204583	-0.642852783203125	-2.1429443359375E-05
315.169007204275	-0.645355224609375	-2.18536376953125E-05
315.291077203967	-0.648529052734375	-2.22686767578125E-05
315.413147203658	-0.6502685546875	-2.26715087890625E-05
315.53521720335	-0.65277099609375	-2.31231689453125E-05
315.657287203042	-0.65557861328125	-2.357177734375E-05
315.779357202734	-0.6580810546875	-2.39898681640625E-05
315.901427202426	-0.66033935546875	-2.4468994140625E-05
316.023497202117	-0.6632080078125	-2.49359130859375E-05
316.145567201809	-0.665802001953125	-2.5390625E-05
316.267637201501	-0.6678466796875	-2.58819580078125E-05
316.389707201193	-0.66998291015625	-2.6409912109375E-05
316.511777200885	-0.672210693359375	-2.6885986328125E-05
316.633847200576	-0.6751708984375	-2.73681640625E-05
316.755917200268	-0.6768798828125	-2.79571533203125E-05
316.87798719996	-0.67919921875	-2.84820556640625E-05
317.000057199652	-0.6826171875	-2.9022216796875E-05
317.122127199344	-0.684112548828125	-2.96142578125E-05
317.244197199035	-0.686614990234375	-3.01605224609375E-05
317.366267198727	-0.690460205078125	-3.07220458984375E-05
317.488337198419	-0.6922607421875	-3.13385009765625E-05
317.610407198111	-0.6947021484375	-3.1927490234375E-05
317.732477197803	-0.69775390625	-3.25469970703125E-05
317.854547197494	-0.699676513671875	-3.31817626953125E-05
317.976617197186	-0.701995849609375	-3.38134765625E-05
318.098687196878	-0.704345703125	-3.44573974609375E-05
318.22075719657	-0.707061767578125	-3.51043701171875E-05
318.342827196262	-0.709503173828125	-3.57696533203125E-05
318.464897195953	-0.711944580078125	-3.64410400390625E-05
318.586967195645	-0.714599609375	-3.7152099609375E-05
318.709037195337	-0.71685791015625	-3.78631591796875E-05
318.831107195029	-0.719482421875	-3.8568115234375E-05
318.953177194721	-0.722076416015625	-3.93280029296875E-05
319.075247194412	-0.724578857421875	-4.007568359375E-05
319.197317194104	-0.726959228515625	-4.08111572265625E-05
319.319387193796	-0.729278564453125	-4.156494140625E-05
319.441457193488	-0.7318115234375	-4.2388916015625E-05
319.56352719318	-0.733673095703125	-4.315185546875E-05
319.685597192871	-0.736297607421875	-4.3975830078125E-05
319.807667192563	-0.73883056640625	-4.4830322265625E-05
319.929737192255	-0.741485595703125	-4.5654296875E-05
320.051807191947	-0.743988037109375	-4.65087890625E-05
320.173877191639	-0.745880126953125	-4.736328125E-05
320.29594719133	-0.748931884765625	-4.8248291015625E-05
320.418017191022	-0.750732421875	-4.913330078125E-05
320.540087190714	-0.75408935546875	-5.0048828125E-05
320.662157190406	-0.7562255859375	-5.096435546875E-05
320.784227190098	-0.75958251953125	-5.1910400390625E-05
320.906297189789	-0.76080322265625	-5.291748046875E-05
321.028367189481	-0.76416015625	-5.3863525390625E-05
321.150437189173	-0.76629638671875	-5.487060546875E-05
321.272507188865	-0.76812744140625	-5.5908203125E-05
321.394577188557	-0.7708740234375	-5.6884765625E-05
321.516647188249	-0.7733154296875	-5.792236328125E-05
321.63871718794	-0.7763671875	-5.902099609375E-05
321.760787187632	-0.77789306640625	-6.005859375E-05
321.882857187324	-0.7806396484375	-6.11572265625E-05
322.004927187016	-0.78277587890625	-6.2286376953125E-05
322.126997186708	-0.784912109375	-6.341552734375E-05
322.249067186399	-0.78765869140625	-6.4544677734375E-05
322.371137186091	-0.789794921875	-6.573486328125E-05
322.493207185783	-0.7928466796875	-6.6925048828125E-05
322.615277185475	-0.7952880859375	-6.8115234375E-05
322.737347185167	-0.797119140625	-6.93359375E-05
322.859417184858	-0.80078125	-7.0556640625E-05
322.98148718455	-0.80291748046875	-7.1807861328125E-05
323.103557184242	-0.80535888671875	-7.305908203125E-05
323.225627183934	-0.8074951171875	-7.4371337890625E-05
323.347697183626	-0.810546875	-7.5653076171875E-05
323.469767183317	-0.81268310546875	-7.696533203125E-05
323.591837183009	-0.81512451171875	-7.8277587890625E-05
323.713907182701	-0.816650390625	-7.965087890625E-05
323.835977182393	-0.82000732421875	-8.1024169921875E-05
323.958047182085	-0.82183837890625	-8.23974609375E-05
324.080117181776	-0.8245849609375	-8.3770751953125E-05
324.202187181468	-0.82733154296875	-8.5205078125E-05
324.32425718116	-0.82916259765625	-8.660888671875E-05
324.446327180852	-0.8319091796875	-8.8043212890625E-05
324.568397180544	-0.8349609375	-8.9508056640625E-05
324.690467180235	-0.83709716796875	-9.100341796875E-05
324.812537179927	-0.83984375	-9.2437744140625E-05
324.934607179619	-0.84228515625	-9.3963623046875E-05
325.056677179311	-0.84442138671875	-9.552001953125E-05
325.178747179003	-0.84747314453125	-9.6954345703125E-05
325.300817178694	-0.848388671875	-9.85107421875E-05
325.422887178386	-0.85113525390625	-0.000100067138671875
325.544957178078	-0.853271484375	-0.000101593017578125
325.66702717777	-0.8563232421875	-0.0001031494140625
325.789097177462	-0.8587646484375	-0.000104736328125
325.911167177153	-0.86151123046875	-0.000106292724609375
326.033237176845	-0.86395263671875	-0.000107879638671875
326.155307176537	-0.86639404296875	-0.000109466552734375
326.277377176229	-0.8685302734375	-0.000111053466796875
326.399447175921	-0.87127685546875	-0.000112640380859375
326.521517175612	-0.87310791015625	-0.0001142578125
326.643587175304	-0.87615966796875	-0.0001158447265625
326.765657174996	-0.8782958984375	-0.000117462158203125
326.887727174688	-0.880126953125	-0.000119110107421875
327.00979717438	-0.88348388671875	-0.000120697021484375
327.131867174071	-0.88531494140625	-0.000122283935546875
327.253937173763	-0.888671875	-0.000123992919921875
327.376007173455	-0.89111328125	-0.000125579833984375
327.498077173147	-0.8935546875	-0.000127197265625
327.620147172839	-0.89569091796875	-0.000128875732421875
327.74221717253	-0.8978271484375	-0.0001304931640625
327.864287172222	-0.89996337890625	-0.000132080078125
327.986357171914	-0.9027099609375	-0.0001337890625
328.108427171606	-0.9051513671875	-0.00013543701171875
328.230497171298	-0.9075927734375	-0.000137115478515625
328.352567170989	-0.909423828125	-0.000138763427734375
328.474637170681	-0.9124755859375	-0.000140411376953125
328.596707170373	-0.9149169921875	-0.00014208984375
328.718777170065	-0.91766357421875	-0.000143768310546875
328.840847169757	-0.92071533203125	-0.00014544677734375
328.962917169448	-0.92254638671875	-0.000147064208984375
329.08498716914	-0.92498779296875	-0.000148773193359375
329.207057168832	-0.92742919921875	-0.000150421142578125
329.329127168524	-0.928955078125	-0.000152069091796875
329.451197168216	-0.931396484375	-0.00015374755859375
329.573267167907	-0.93414306640625	-0.00015545654296875
329.695337167599	-0.93719482421875	-0.00015716552734375
329.817407167291	-0.93963623046875	-0.000158935546875
329.939477166983	-0.941162109375	-0.000160552978515625
330.061547166675	-0.94451904296875	-0.000162139892578125
330.183617166367	-0.947265625	-0.000163787841796875
330.305687166058	-0.94940185546875	-0.000165435791015625
330.42775716575	-0.950927734375	-0.000167022705078125
330.549827165442	-0.9539794921875	-0.00016864013671875
330.671897165134	-0.95733642578125	-0.0001702880859375
330.793967164826	-0.95855712890625	-0.000171905517578125
330.916037164517	-0.9613037109375	-0.000173583984375
331.038107164209	-0.96405029296875	-0.000175140380859375
331.160177163901	-0.9661865234375	-0.0001767578125
331.282247163593	-0.9686279296875	-0.000178375244140625
331.404317163285	-0.9710693359375	-0.00017999267578125
331.526387162976	-0.97381591796875	-0.000181610107421875
331.648457162668	-0.9765625	-0.0001832275390625
331.77052716236	-0.97900390625	-0.00018487548828125
331.892597162052	-0.98114013671875	-0.00018646240234375
332.014667161744	-0.98388671875	-0.00018804931640625
332.136737161435	-0.98602294921875	-0.000189727783203125
332.258807161127	-0.98876953125	-0.00019134521484375
332.380877160819	-0.99090576171875	-0.000192962646484375
332.502947160511	-0.99395751953125	-0.000194671630859375
332.625017160203	-0.99517822265625	-0.0001962890625
332.747087159894	-0.99761962890625	-0.0001978759765625
332.869157159586	-1.00067138671875	-0.000199493408203125
332.991227159278	-1.002197265625	-0.000201080322265625
333.11329715897	-1.004638671875	-0.00020269775390625
333.235367158662	-1.00830078125	-0.000204315185546875
333.357437158353	-1.009521484375	-0.000205902099609375
333.479507158045	-1.01226806640625	-0.000207427978515625
333.601577157737	-1.0150146484375	-0.00020904541015625
333.723647157429	-1.01776123046875	-0.00021063232421875
333.845717157121	-1.02020263671875	-0.000212158203125
333.967787156812	-1.021728515625	-0.00021380615234375
334.089857156504	-1.02508544921875	-0.00021551513671875
334.211927156196	-1.0272216796875	-0.0002171630859375
334.333997155888	-1.02935791015625	-0.000218719482421875
334.45606715558	-1.031494140625	-0.000220428466796875
334.578137155271	-1.03546142578125	-0.000221923828125
334.700207154963	-1.0369873046875	-0.000223602294921875
334.822277154655	-1.0400390625	-0.00022528076171875
334.944347154347	-1.04248046875	-0.00022674560546875
335.066417154039	-1.04400634765625	-0.000228424072265625
335.18848715373	-1.04705810546875	-0.000230072021484375
335.310557153422	-1.0498046875	-0.00023162841796875
335.432627153114	-1.0516357421875	-0.000233245849609375
335.554697152806	-1.0540771484375	-0.0002349853515625
335.676767152498	-1.05712890625	-0.000236480712890625
335.798837152189	-1.0595703125	-0.000238189697265625
335.920907151881	-1.06048583984375	-0.000239776611328125
336.042977151573	-1.063232421875	-0.0002413330078125
336.165047151265	-1.06597900390625	-0.000242889404296875
336.287117150957	-1.0687255859375	-0.0002445068359375
336.409187150648	-1.07086181640625	-0.000246002197265625
336.53125715034	-1.07421875	-0.0002476806640625
336.653327150032	-1.07635498046875	-0.000249267578125
336.775397149724	-1.07818603515625	-0.00025079345703125
336.897467149416	-1.0809326171875	-0.000252960205078125
337.019537149107	-1.08367919921875	-0.00025469970703125
337.141607148799	-1.08612060546875	-0.000256103515625
337.263677148491	-1.0888671875	-0.000257598876953125
337.385747148183	-1.09100341796875	-0.00025927734375
337.507817147875	-1.0931396484375	-0.000261138916015625
337.629887147566	-1.094970703125	-0.00026300048828125
337.751957147258	-1.09832763671875	-0.00026446533203125
337.87402714695	-1.10076904296875	-0.00026580810546875
337.996097146642	-1.1029052734375	-0.00026715087890625
338.118167146334	-1.1053466796875	-0.0002685546875
338.240237146025	-1.1077880859375	-0.00026995849609375
338.362307145717	-1.10992431640625	-0.0002716064453125
338.484377145409	-1.11236572265625	-0.0002733154296875
338.606447145101	-1.114501953125	-0.0002752685546875
338.728517144793	-1.11724853515625	-0.000276580810546875
338.850587144485	-1.119384765625	-0.000278167724609375
338.972657144176	-1.12152099609375	-0.000279632568359375
339.094727143868	-1.124267578125	-0.00028094482421875
339.21679714356	-1.12701416015625	-0.000282470703125
339.338867143252	-1.1297607421875	-0.00028399658203125
339.460937142944	-1.1322021484375	-0.00028564453125
339.583007142635	-1.13494873046875	-0.000287139892578125
339.705077142327	-1.13739013671875	-0.00028887939453125
339.827147142019	-1.138916015625	-0.00029107666015625
339.949217141711	-1.14105224609375	-0.000292694091796875
340.071287141403	-1.14410400390625	-0.0002945556640625
340.193357141094	-1.14715576171875	-0.0002962646484375
340.315427140786	-1.14990234375	-0.00029827880859375
340.437497140478	-1.15081787109375	-0.000300628662109375
340.55956714017	-1.15478515625	-0.00030291748046875
340.681637139862	-1.1566162109375	-0.000305633544921875
340.803707139553	-1.15936279296875	-0.00030792236328125
340.925777139245	-1.1614990234375	-0.000310455322265625
341.047847138937	-1.163330078125	-0.00031298828125
341.169917138629	-1.16607666015625	-0.000315704345703125
341.291987138321	-1.168212890625	-0.000319061279296875
341.414057138012	-1.1712646484375	-0.000322265625
341.536127137704	-1.17401123046875	-0.000325836181640625
341.658197137396	-1.1761474609375	-0.0003294677734375
341.780267137088	-1.17889404296875	-0.00033331298828125
341.90233713678	-1.18072509765625	-0.000337158203125
342.024407136471	-1.18377685546875	-0.000341522216796875
342.146477136163	-1.18621826171875	-0.00034619140625
342.268547135855	-1.1883544921875	-0.0003511962890625
342.390617135547	-1.1907958984375	-0.000356658935546875
342.512687135239	-1.19354248046875	-0.000362457275390625
342.63475713493	-1.19537353515625	-0.000368621826171875
342.756827134622	-1.19781494140625	-0.0003748779296875
342.878897134314	-1.20025634765625	-0.0003817138671875
343.000967134006	-1.2030029296875	-0.0003887939453125
343.123037133698	-1.2060546875	-0.00039630126953125
343.245107133389	-1.20758056640625	-0.000404632568359375
343.367177133081	-1.21063232421875	-0.000412841796875
343.489247132773	-1.2127685546875	-0.000421539306640625
343.611317132465	-1.21490478515625	-0.000431121826171875
343.733387132157	-1.21795654296875	-0.00044110107421875
343.855457131848	-1.22100830078125	-0.00045086669921875
343.97752713154	-1.22283935546875	-0.000461273193359375
344.099597131232	-1.2249755859375	-0.000472076416015625
344.221667130924	-1.226806640625	-0.000483367919921875
344.343737130616	-1.22955322265625	-0.00049560546875
344.465807130307	-1.2322998046875	-0.0005084228515625
344.587877129999	-1.234130859375	-0.000521240234375
344.709947129691	-1.236572265625	-0.00053466796875
344.832017129383	-1.23992919921875	-0.00054901123046875
344.954087129075	-1.24176025390625	-0.00056396484375
345.076157128766	-1.2451171875	-0.000579833984375
345.198227128458	-1.246337890625	-0.00059600830078125
345.32029712815	-1.25	-0.00061248779296875
345.442367127842	-1.251220703125	-0.00062957763671875
345.564437127534	-1.253662109375	-0.0006475830078125
345.686507127225	-1.2567138671875	-0.0006658935546875
345.808577126917	-1.25885009765625	-0.000684814453125
345.930647126609	-1.260986328125	-0.00070404052734375
346.052717126301	-1.26434326171875	-0.0007244873046875
346.174787125993	-1.2664794921875	-0.000745849609375
346.296857125684	-1.2689208984375	-0.00076629638671875
346.418927125376	-1.27105712890625	-0.00078826904296875
346.540997125068	-1.2738037109375	-0.000810546875
346.66306712476	-1.27655029296875	-0.00083343505859375
346.785137124452	-1.278076171875	-0.000858154296875
346.907207124144	-1.28082275390625	-0.00088287353515625
347.029277123835	-1.28326416015625	-0.000908203125
347.151347123527	-1.28631591796875	-0.000933837890625
347.273417123219	-1.28875732421875	-0.00096099853515625
347.395487122911	-1.29058837890625	-0.000987548828125
347.517557122603	-1.2939453125	-0.00101470947265625
347.639627122294	-1.2957763671875	-0.0010430908203125
347.761697121986	-1.29791259765625	-0.00107147216796875
347.883767121678	-1.30096435546875	-0.00110076904296875
348.00583712137	-1.3031005859375	-0.0011297607421875
348.127907121062	-1.30584716796875	-0.00115936279296875
348.249977120753	-1.30828857421875	-0.0011907958984375
348.372047120445	-1.31103515625	-0.001224365234375
348.494117120137	-1.31256103515625	-0.00125640869140625
348.616187119829	-1.31591796875	-0.0012896728515625
348.738257119521	-1.318359375	-0.0013232421875
348.860327119212	-1.319580078125	-0.0013580322265625
348.982397118904	-1.32232666015625	-0.00139312744140625
349.104467118596	-1.32537841796875	-0.00142913818359375
349.226537118288	-1.32720947265625	-0.00146514892578125
349.34860711798	-1.33026123046875	-0.00150177001953125
349.470677117671	-1.33270263671875	-0.00153961181640625
349.592747117363	-1.334228515625	-0.00157806396484375
349.714817117055	-1.336669921875	-0.001617431640625
349.836887116747	-1.34033203125	-0.0016571044921875
349.958957116439	-1.34185791015625	-0.00169769287109375
350.08102711613	-1.34521484375	-0.0017388916015625
350.203097115822	-1.34735107421875	-0.00178131103515625
350.325167115514	-1.3494873046875	-0.00182373046875
350.447237115206	-1.3519287109375	-0.001866455078125
350.569307114898	-1.3543701171875	-0.00191070556640625
350.691377114589	-1.3568115234375	-0.00195556640625
350.813447114281	-1.35894775390625	-0.00200103759765625
350.935517113973	-1.36199951171875	-0.002047119140625
351.057587113665	-1.3641357421875	-0.0020941162109375
351.179657113357	-1.36627197265625	-0.00214080810546875
351.301727113048	-1.36871337890625	-0.0021881103515625
351.42379711274	-1.3720703125	-0.00223663330078125
351.545867112432	-1.37359619140625	-0.00228607177734375
351.667937112124	-1.37664794921875	-0.00233612060546875
351.790007111816	-1.37908935546875	-0.00238616943359375
351.912077111507	-1.3812255859375	-0.00243743896484375
352.034147111199	-1.383056640625	-0.00248931884765625
352.156217110891	-1.38671875	-0.00254150390625
352.278287110583	-1.38824462890625	-0.00259429931640625
352.400357110275	-1.39068603515625	-0.002647705078125
352.522427109966	-1.3934326171875	-0.00270263671875
352.644497109658	-1.3958740234375	-0.00275726318359375
352.76656710935	-1.39801025390625	-0.0028131103515625
352.888637109042	-1.40106201171875	-0.00286956787109375
353.010707108734	-1.40350341796875	-0.0029254150390625
353.132777108425	-1.40594482421875	-0.002982177734375
353.254847108117	-1.40899658203125	-0.00303924560546875
353.376917107809	-1.4111328125	-0.003096923828125
353.498987107501	-1.41387939453125	-0.00315460205078125
353.621057107193	-1.4154052734375	-0.00321319580078125
353.743127106884	-1.41815185546875	-0.0032720947265625
353.865197106576	-1.42059326171875	-0.003331298828125
353.987267106268	-1.422119140625	-0.0033905029296875
354.10933710596	-1.42547607421875	-0.0034503173828125
354.231407105652	-1.4276123046875	-0.00350982666015625
354.353477105343	-1.42578125	-0.00346893310546875
354.475547105035	-1.42303466796875	-0.003426513671875
354.597617104727	-1.4202880859375	-0.0033819580078125
354.719687104419	-1.41815185546875	-0.003336181640625
354.841757104111	-1.41448974609375	-0.003289794921875
354.963827103802	-1.41265869140625	-0.0032427978515625
355.085897103494	-1.4111328125	-0.00319488525390625
355.207967103186	-1.407470703125	-0.00314666748046875
355.330037102878	-1.40594482421875	-0.0030987548828125
355.45210710257	-1.40350341796875	-0.00304931640625
355.574177102262	-1.400146484375	-0.00300048828125
355.696247101953	-1.39862060546875	-0.0029510498046875
355.818317101645	-1.396484375	-0.00290191650390625
355.940387101337	-1.39312744140625	-0.00285247802734375
356.062457101029	-1.390380859375	-0.00280303955078125
356.184527100721	-1.38885498046875	-0.0027532958984375
356.306597100412	-1.3861083984375	-0.00270416259765625
356.428667100104	-1.38336181640625	-0.00265472412109375
356.550737099796	-1.3812255859375	-0.0026055908203125
356.672807099488	-1.37939453125	-0.00255706787109375
356.79487709918	-1.37725830078125	-0.00250823974609375
356.916947098871	-1.37359619140625	-0.002459716796875
357.039017098563	-1.3720703125	-0.002412109375
357.161087098255	-1.368408203125	-0.00236480712890625
357.283157097947	-1.3665771484375	-0.002318115234375
357.405227097639	-1.36474609375	-0.002271728515625
357.52729709733	-1.36138916015625	-0.002225341796875
357.649367097022	-1.36016845703125	-0.0021795654296875
357.771437096714	-1.35650634765625	-0.0021343994140625
357.893507096406	-1.35498046875	-0.00208984375
358.015577096098	-1.3519287109375	-0.00204498291015625
358.137647095789	-1.348876953125	-0.00200164794921875
358.259717095481	-1.34674072265625	-0.0019580078125
358.381787095173	-1.343994140625	-0.00191558837890625
358.503857094865	-1.3421630859375	-0.00187347412109375
358.625927094557	-1.3397216796875	-0.00183197021484375
358.747997094248	-1.33636474609375	-0.00179107666015625
358.87006709394	-1.334228515625	-0.00175079345703125
358.992137093632	-1.3323974609375	-0.00171142578125
359.114207093324	-1.3299560546875	-0.00167266845703125
359.236277093016	-1.3275146484375	-0.00163421630859375
359.358347092707	-1.32476806640625	-0.0015966796875
359.480417092399	-1.3226318359375	-0.00155914306640625
359.602487092091	-1.3201904296875	-0.0015228271484375
359.724557091783	-1.317138671875	-0.00148681640625
359.846627091475	-1.3153076171875	-0.001451416015625
359.968697091166	-1.31256103515625	-0.0014166259765625
360.090767090858	-1.3104248046875	-0.001383056640625
360.21283709055	-1.3079833984375	-0.00134979248046875
360.334907090242	-1.30615234375	-0.00131744384765625
360.456977089934	-1.30279541015625	-0.001285400390625
360.579047089625	-1.29974365234375	-0.0012542724609375
360.701117089317	-1.2982177734375	-0.0012237548828125
360.823187089009	-1.29547119140625	-0.00119384765625
360.945257088701	-1.292724609375	-0.00116455078125
361.067327088393	-1.29150390625	-0.00113555908203125
361.189397088084	-1.28814697265625	-0.001107177734375
361.311467087776	-1.28570556640625	-0.0010797119140625
361.433537087468	-1.2835693359375	-0.00105255126953125
361.55560708716	-1.28143310546875	-0.0010260009765625
361.677677086852	-1.2786865234375	-0.00100006103515625
361.799747086543	-1.27685546875	-0.0009747314453125
361.921817086235	-1.27410888671875	-0.00095001220703125
362.043887085927	-1.27227783203125	-0.0009259033203125
362.165957085619	-1.268310546875	-0.000902099609375
362.288027085311	-1.26617431640625	-0.00087860107421875
362.410097085002	-1.2640380859375	-0.0008563232421875
362.532167084694	-1.2603759765625	-0.0008343505859375
362.654237084386	-1.25823974609375	-0.00081268310546875
362.776307084078	-1.25640869140625	-0.00079132080078125
362.89837708377	-1.253662109375	-0.0007708740234375
363.020447083461	-1.2518310546875	-0.000750732421875
363.142517083153	-1.24908447265625	-0.00073089599609375
363.264587082845	-1.24664306640625	-0.00071197509765625
363.386657082537	-1.243896484375	-0.000693359375
363.508727082229	-1.24176025390625	-0.000675048828125
363.63079708192	-1.23931884765625	-0.00065704345703125
363.752867081612	-1.23748779296875	-0.0006396484375
363.874937081304	-1.23565673828125	-0.00062286376953125
363.997007080996	-1.23260498046875	-0.00060760498046875
364.119077080688	-1.23016357421875	-0.00059051513671875
364.24114708038	-1.22772216796875	-0.00057464599609375
364.363217080071	-1.22528076171875	-0.00055908203125
364.485287079763	-1.22222900390625	-0.00054412841796875
364.607357079455	-1.22100830078125	-0.00052947998046875
364.729427079147	-1.2176513671875	-0.00051544189453125
364.851497078839	-1.21429443359375	-0.00050140380859375
364.97356707853	-1.2127685546875	-0.00048773193359375
365.095637078222	-1.2103271484375	-0.000474761962890625
365.217707077914	-1.2078857421875	-0.0004620361328125
365.339777077606	-1.20513916015625	-0.0004495849609375
365.461847077298	-1.20269775390625	-0.0004373779296875
365.583917076989	-1.201171875	-0.000425384521484375
365.705987076681	-1.1981201171875	-0.00041375732421875
365.828057076373	-1.19537353515625	-0.000402587890625
365.950127076065	-1.1932373046875	-0.000391571044921875
366.072197075757	-1.1907958984375	-0.000381072998046875
366.194267075448	-1.18865966796875	-0.000370574951171875
366.31633707514	-1.1865234375	-0.0003603515625
366.438407074832	-1.18377685546875	-0.000350341796875
366.560477074524	-1.18133544921875	-0.000340728759765625
366.682547074216	-1.17889404296875	-0.000331451416015625
366.804617073907	-1.17645263671875	-0.000322235107421875
366.926687073599	-1.17340087890625	-0.000313323974609375
367.048757073291	-1.171875	-0.000304595947265625
367.170827072983	-1.16912841796875	-0.000296142578125
367.292897072675	-1.1663818359375	-0.00028790283203125
367.414967072366	-1.16455078125	-0.0002799072265625
367.537037072058	-1.160888671875	-0.0002720947265625
367.65910707175	-1.15966796875	-0.000264404296875
367.781177071442	-1.15692138671875	-0.000256988525390625
367.903247071134	-1.1541748046875	-0.000249664306640625
368.025317070825	-1.15203857421875	-0.0002425537109375
368.147387070517	-1.148681640625	-0.000235687255859375
368.269457070209	-1.146240234375	-0.000229034423828125
368.391527069901	-1.1444091796875	-0.000222412109375
368.513597069593	-1.14166259765625	-0.000216217041015625
368.635667069284	-1.138916015625	-0.000209991455078125
368.757737068976	-1.13677978515625	-0.00020391845703125
368.879807068668	-1.1346435546875	-0.000197967529296875
369.00187706836	-1.13250732421875	-0.000192291259765625
369.123947068052	-1.12945556640625	-0.000186737060546875
369.246017067743	-1.12762451171875	-0.00018145751953125
369.368087067435	-1.1248779296875	-0.0001761474609375
369.490157067127	-1.12335205078125	-0.0001708984375
369.612227066819	-1.11968994140625	-0.000165985107421875
369.734297066511	-1.11846923828125	-0.0001611328125
369.856367066202	-1.1151123046875	-0.000156402587890625
369.978437065894	-1.1126708984375	-0.0001517333984375
370.100507065586	-1.1102294921875	-0.000147247314453125
370.222577065278	-1.10809326171875	-0.000142913818359375
370.34464706497	-1.10504150390625	-0.000138671875
370.466717064661	-1.102294921875	-0.00013458251953125
370.588787064353	-1.1004638671875	-0.000130523681640625
370.710857064045	-1.0980224609375	-0.00012664794921875
370.832927063737	-1.09619140625	-0.0001229248046875
370.954997063429	-1.0931396484375	-0.0001192626953125
371.07706706312	-1.09130859375	-0.000115753173828125
371.199137062812	-1.087646484375	-0.000112335205078125
371.321207062504	-1.085205078125	-0.0001090087890625
371.443277062196	-1.08367919921875	-0.000105804443359375
371.565347061888	-1.080322265625	-0.00010272216796875
371.687417061579	-1.07818603515625	-9.967041015625E-05
371.809487061271	-1.07666015625	-9.6771240234375E-05
371.931557060963	-1.07391357421875	-9.3902587890625E-05
372.053627060655	-1.07086181640625	-9.112548828125E-05
372.175697060347	-1.06903076171875	-8.85009765625E-05
372.297767060039	-1.06689453125	-8.5968017578125E-05
372.41983705973	-1.0638427734375	-8.343505859375E-05
372.541907059422	-1.0614013671875	-8.10546875E-05
372.663977059114	-1.05804443359375	-7.8765869140625E-05
372.786047058806	-1.0565185546875	-7.647705078125E-05
372.908117058498	-1.05438232421875	-7.43408203125E-05
373.030187058189	-1.05133056640625	-7.2357177734375E-05
373.152257057881	-1.048583984375	-7.03125E-05
373.274327057573	-1.04705810546875	-6.8328857421875E-05
373.396397057265	-1.043701171875	-6.6497802734375E-05
373.518467056957	-1.04156494140625	-6.463623046875E-05
373.640537056648	-1.0400390625	-6.2896728515625E-05
373.76260705634	-1.03668212890625	-6.1248779296875E-05
373.884677056032	-1.0345458984375	-5.963134765625E-05
374.006747055724	-1.03179931640625	-5.8074951171875E-05
374.128817055416	-1.0296630859375	-5.657958984375E-05
374.250887055107	-1.0272216796875	-5.5084228515625E-05
374.372957054799	-1.0247802734375	-5.3680419921875E-05
374.495027054491	-1.02203369140625	-5.2398681640625E-05
374.617097054183	-1.02020263671875	-5.1116943359375E-05
374.739167053875	-1.016845703125	-4.9774169921875E-05
374.861237053566	-1.01531982421875	-4.8614501953125E-05
374.983307053258	-1.01318359375	-4.742431640625E-05
375.10537705295	-1.009521484375	-4.62646484375E-05
375.227447052642	-1.00738525390625	-4.5166015625E-05
375.349517052334	-1.00494384765625	-4.412841796875E-05
375.471587052025	-1.0028076171875	-4.3060302734375E-05
375.593657051717	-1.00006103515625	-4.2083740234375E-05
375.715727051409	-0.997314453125	-4.1107177734375E-05
375.837797051101	-0.99578857421875	-4.01763916015625E-05
375.959867050793	-0.99334716796875	-3.92486572265625E-05
376.081937050484	-0.989990234375	-3.84002685546875E-05
376.204007050176	-0.9881591796875	-3.746337890625E-05
376.326077049868	-0.98602294921875	-3.6627197265625E-05
376.44814704956	-0.98358154296875	-3.58062744140625E-05
376.570217049252	-0.9808349609375	-3.4967041015625E-05
376.692287048943	-0.97900390625	-3.41522216796875E-05
376.814357048635	-0.97686767578125	-3.3416748046875E-05
376.936427048327	-0.97320556640625	-3.25897216796875E-05
377.058497048019	-0.9710693359375	-3.17840576171875E-05
377.180567047711	-0.96923828125	-3.109130859375E-05
377.302637047402	-0.9661865234375	-3.02947998046875E-05
377.424707047094	-0.963134765625	-2.94769287109375E-05
377.546777046786	-0.96099853515625	-2.87841796875E-05
377.668847046478	-0.95916748046875	-2.80181884765625E-05
377.79091704617	-0.9564208984375	-2.725830078125E-05
377.912987045861	-0.95367431640625	-2.65228271484375E-05
378.035057045553	-0.95184326171875	-2.57659912109375E-05
378.157127045245	-0.94970703125	-2.49664306640625E-05
378.279197044937	-0.9466552734375	-2.421875E-05
378.401267044629	-0.9442138671875	-2.342529296875E-05
378.52333704432	-0.94146728515625	-2.264404296875E-05
378.645407044012	-0.93963623046875	-2.1832275390625E-05
378.767477043704	-0.936279296875	-2.09625244140625E-05
378.889547043396	-0.93475341796875	-2.00836181640625E-05
379.011617043088	-0.93231201171875	-1.9256591796875E-05
379.133687042779	-0.9295654296875	-1.8377685546875E-05
379.255757042471	-0.927734375	-1.74530029296875E-05
379.377827042163	-0.92437744140625	-1.65557861328125E-05
379.499897041855	-0.92315673828125	-1.5594482421875E-05
379.621967041547	-0.92010498046875	-1.46331787109375E-05
379.744037041238	-0.9173583984375	-1.3616943359375E-05
379.86610704093	-0.91461181640625	-1.25762939453125E-05
379.988177040622	-0.91278076171875	-1.1517333984375E-05
380.110247040314	-0.909423828125	-1.04339599609375E-05
380.232317040006	-0.906982421875	-9.3048095703125E-06
380.354387039697	-0.9051513671875	-8.09326171875E-06
380.476457039389	-0.902099609375	-6.854248046875E-06
380.598527039081	-0.899658203125	-5.6182861328125E-06
380.720597038773	-0.8978271484375	-4.327392578125E-06
380.842667038465	-0.89569091796875	-2.9510498046875E-06
380.964737038157	-0.8935546875	-1.59912109375E-06
381.086807037848	-0.89141845703125	-9.1552734375E-08
381.20887703754	-0.888671875	1.47705078125E-06
381.330947037232	-0.88531494140625	2.9815673828125E-06
381.453017036924	-0.88409423828125	4.5654296875E-06
381.575087036616	-0.88104248046875	6.1798095703125E-06
381.697157036307	-0.87860107421875	7.8399658203125E-06
381.819227035999	-0.8758544921875	9.564208984375E-06
381.941297035691	-0.8734130859375	1.13677978515625E-05
382.063367035383	-0.87066650390625	1.31622314453125E-05
382.185437035075	-0.86822509765625	1.50146484375E-05
382.307507034766	-0.86517333984375	1.697998046875E-05
382.429577034458	-0.86334228515625	1.88690185546875E-05
382.55164703415	-0.86029052734375	2.08526611328125E-05
382.673717033842	-0.85845947265625	2.29400634765625E-05
382.795787033534	-0.85693359375	2.49969482421875E-05
382.917857033225	-0.85418701171875	2.698974609375E-05
383.039927032917	-0.85113525390625	2.9095458984375E-05
383.161997032609	-0.84930419921875	3.10943603515625E-05
383.284067032301	-0.84625244140625	3.3038330078125E-05
383.406137031993	-0.84381103515625	3.5009765625E-05
383.528207031684	-0.8416748046875	3.6865234375E-05
383.650277031376	-0.83892822265625	3.87054443359375E-05
383.772347031068	-0.83709716796875	4.04754638671875E-05
383.89441703076	-0.83404541015625	4.2083740234375E-05
384.016487030452	-0.8319091796875	4.3701171875E-05
384.138557030143	-0.82916259765625	4.5257568359375E-05
384.260627029835	-0.82763671875	4.67529296875E-05
384.382697029527	-0.82489013671875	4.815673828125E-05
384.504767029219	-0.82275390625	4.949951171875E-05
384.626837028911	-0.8197021484375	5.0750732421875E-05
384.748907028602	-0.81787109375	5.1971435546875E-05
384.870977028294	-0.8160400390625	5.3192138671875E-05
384.993047027986	-0.8123779296875	5.4412841796875E-05
385.115117027678	-0.80963134765625	5.5511474609375E-05
385.23718702737	-0.8074951171875	5.6640625E-05
385.359257027061	-0.80535888671875	5.77392578125E-05
385.481327026753	-0.802001953125	5.8746337890625E-05
385.603397026445	-0.79986572265625	5.975341796875E-05
385.725467026137	-0.7977294921875	6.0791015625E-05
385.847537025829	-0.79559326171875	6.170654296875E-05
385.96960702552	-0.79345703125	6.268310546875E-05
386.091677025212	-0.79071044921875	6.3629150390625E-05
386.213747024904	-0.78826904296875	6.4483642578125E-05
386.335817024596	-0.78582763671875	6.53076171875E-05
386.457887024288	-0.78277587890625	6.6253662109375E-05
386.579957023979	-0.78033447265625	6.6986083984375E-05
386.702027023671	-0.77850341796875	6.781005859375E-05
386.824097023363	-0.775146484375	6.8695068359375E-05
386.946167023055	-0.7733154296875	6.9488525390625E-05
387.068237022747	-0.77178955078125	7.025146484375E-05
387.190307022438	-0.7684326171875	7.1044921875E-05
387.31237702213	-0.76690673828125	7.177734375E-05
387.434447021822	-0.76385498046875	7.2509765625E-05
387.556517021514	-0.76141357421875	7.330322265625E-05
387.678587021206	-0.7586669921875	7.403564453125E-05
387.800657020897	-0.75592041015625	7.470703125E-05
387.922727020589	-0.75439453125	7.5469970703125E-05
388.044797020281	-0.75164794921875	7.6202392578125E-05
388.166867019973	-0.748504638671875	7.6904296875E-05
388.288937019665	-0.7462158203125	7.763671875E-05
388.411007019356	-0.74420166015625	7.843017578125E-05
388.533077019048	-0.74188232421875	7.904052734375E-05
388.65514701874	-0.739227294921875	7.9803466796875E-05
388.777217018432	-0.73712158203125	8.062744140625E-05
388.899287018124	-0.734619140625	8.135986328125E-05
389.021357017815	-0.732086181640625	8.2183837890625E-05
389.143427017507	-0.72967529296875	8.30078125E-05
389.265497017199	-0.727264404296875	8.3831787109375E-05
389.387567016891	-0.724273681640625	8.4716796875E-05
389.509637016583	-0.72216796875	8.5662841796875E-05
389.631707016275	-0.71929931640625	8.65478515625E-05
389.753777015966	-0.7169189453125	8.7493896484375E-05
389.875847015658	-0.71441650390625	8.8531494140625E-05
389.99791701535	-0.71270751953125	8.953857421875E-05
390.119987015042	-0.710235595703125	9.0545654296875E-05
390.242057014734	-0.707244873046875	9.173583984375E-05
390.364127014425	-0.70513916015625	9.2926025390625E-05
390.486197014117	-0.702392578125	9.4085693359375E-05
390.608267013809	-0.700469970703125	9.5367431640625E-05
390.730337013501	-0.698089599609375	9.661865234375E-05
390.852407013193	-0.694915771484375	9.796142578125E-05
390.974477012884	-0.69305419921875	9.9334716796875E-05
391.096547012576	-0.69036865234375	0.00010076904296875
391.218617012268	-0.688140869140625	0.00010223388671875
391.34068701196	-0.685394287109375	0.000103759765625
391.462757011652	-0.6827392578125	0.000105316162109375
391.584827011343	-0.68023681640625	0.000106842041015625
391.706897011035	-0.677947998046875	0.0001085205078125
391.828967010727	-0.67547607421875	0.000110198974609375
391.951037010419	-0.673736572265625	0.00011187744140625
392.073107010111	-0.67071533203125	0.000113677978515625
392.195177009802	-0.66851806640625	0.000115447998046875
392.317247009494	-0.665618896484375	0.00011724853515625
392.439317009186	-0.663909912109375	0.000119110107421875
392.561387008878	-0.6614990234375	0.00012109375
392.68345700857	-0.65826416015625	0.000123016357421875
392.805527008261	-0.65625	0.000125030517578125
392.927597007953	-0.6541748046875	0.00012713623046875
393.049667007645	-0.651519775390625	0.000129180908203125
393.171737007337	-0.64935302734375	0.00013128662109375
393.293807007029	-0.646514892578125	0.000133453369140625
393.41587700672	-0.644378662109375	0.0001356201171875
393.537947006412	-0.641265869140625	0.0001378173828125
393.660017006104	-0.638885498046875	0.00014007568359375
393.782087005796	-0.636566162109375	0.00014227294921875
393.904157005488	-0.634765625	0.000144500732421875
394.026227005179	-0.631622314453125	0.00014678955078125
394.148297004871	-0.629119873046875	0.000149017333984375
394.270367004563	-0.626861572265625	0.0001512451171875
394.392437004255	-0.62457275390625	0.000153533935546875
394.514507003947	-0.622222900390625	0.00015582275390625
394.636577003638	-0.6195068359375	0.00015802001953125
394.75864700333	-0.617584228515625	0.0001602783203125
394.880717003022	-0.615234375	0.000162445068359375
395.002787002714	-0.612213134765625	0.000164520263671875
395.124857002406	-0.609771728515625	0.0001666259765625
395.246927002097	-0.607696533203125	0.000168609619140625
395.368997001789	-0.605224609375	0.000170501708984375
395.491067001481	-0.6031494140625	0.00017230224609375
395.613137001173	-0.599853515625	0.0001739501953125
395.735207000865	-0.59820556640625	0.00017547607421875
395.857277000556	-0.5950927734375	0.000176849365234375
395.979347000248	-0.5928955078125	0.000178009033203125
396.10141699994	-0.5904541015625	0.000178955078125
396.223486999632	-0.587615966796875	0.0001796875
396.345556999324	-0.585906982421875	0.00018023681640625
396.467626999015	-0.582855224609375	0.000180511474609375
396.589696998707	-0.5806884765625	0.000180511474609375
396.711766998399	-0.578643798828125	0.000180389404296875
396.833836998091	-0.575897216796875	0.00017999267578125
396.955906997783	-0.573699951171875	0.000179351806640625
397.077976997474	-0.57061767578125	0.000178466796875
397.200046997166	-0.568756103515625	0.0001773681640625
397.322116996858	-0.56640625	0.000176116943359375
397.44418699655	-0.5634765625	0.0001746826171875
397.566256996242	-0.561553955078125	0.000173065185546875
397.688326995933	-0.559173583984375	0.00017132568359375
397.810396995625	-0.556610107421875	0.000169525146484375
397.932466995317	-0.55377197265625	0.0001676025390625
398.054536995009	-0.5516357421875	0.000165618896484375
398.176606994701	-0.549224853515625	0.0001636962890625
398.298676994393	-0.5462646484375	0.000161773681640625
398.420746994084	-0.54388427734375	0.00015985107421875
398.542816993776	-0.5419921875	0.000158172607421875
398.664886993468	-0.539398193359375	0.000156707763671875
398.78695699316	-0.536346435546875	0.000155548095703125
398.909026992852	-0.533935546875	0.000154876708984375
399.031096992543	-0.531463623046875	0.000154632568359375
399.153166992235	-0.529510498046875	0.00015460205078125
399.275236991927	-0.5269775390625	0.0001546630859375
399.397306991619	-0.524871826171875	0.000154510498046875
399.519376991311	-0.52239990234375	0.00015386962890625
399.641446991002	-0.520050048828125	0.000152801513671875
399.763516990694	-0.517333984375	0.00015093994140625
399.885586990386	-0.515167236328125	0.00014825439453125
400.007656990078	-0.512725830078125	0.00014495849609375
400.12972698977	-0.51025390625	0.000141143798828125
400.251796989461	-0.5076904296875	0.000136962890625
400.373866989153	-0.50469970703125	0.00013275146484375
400.495936988845	-0.50286865234375	0.00012860107421875
400.618006988537	-0.50042724609375	0.0001246337890625
400.740076988229	-0.49737548828125	0.0001209716796875
400.86214698792	-0.495330810546875	0.00011767578125
400.984216987612	-0.49273681640625	0.0001146240234375
401.106286987304	-0.490478515625	0.00011187744140625
401.228356986996	-0.487548828125	0.0001094970703125
401.350426986688	-0.485382080078125	0.000107330322265625
401.472496986379	-0.483367919921875	0.00010546875
401.594566986071	-0.480194091796875	0.000103912353515625
401.716636985763	-0.478424072265625	0.00010247802734375
401.838706985455	-0.475921630859375	0.000101287841796875
401.960776985147	-0.47320556640625	0.0001002197265625
402.082846984838	-0.471099853515625	9.9334716796875E-05
402.20491698453	-0.46820068359375	9.85107421875E-05
402.326986984222	-0.466339111328125	9.7869873046875E-05
402.449056983914	-0.46380615234375	9.7381591796875E-05
402.571126983606	-0.461456298828125	9.6832275390625E-05
402.693196983297	-0.459075927734375	9.6435546875E-05
402.815266982989	-0.456268310546875	9.6099853515625E-05
402.937336982681	-0.453399658203125	9.5794677734375E-05
403.059406982373	-0.451202392578125	9.5550537109375E-05
403.181476982065	-0.44854736328125	9.5367431640625E-05
403.303546981756	-0.446624755859375	9.521484375E-05
403.425616981448	-0.443511962890625	9.5123291015625E-05
403.54768698114	-0.44110107421875	9.503173828125E-05
403.669756980832	-0.438812255859375	9.4970703125E-05
403.791826980524	-0.436798095703125	9.4970703125E-05
403.913896980215	-0.4342041015625	9.4970703125E-05
404.035966979907	-0.431640625	9.4970703125E-05
404.158036979599	-0.4296875	9.5001220703125E-05
404.280106979291	-0.42718505859375	9.5123291015625E-05
