Time (s)	WE(1).Potential (V)	OCP value (V)
634.3581413984	-0.50994873046875	0.0174797058105469
635.358141395875	-0.440887451171875	
636.35814139335	-0.37506103515625	
637.358141390825	-0.323089599609375	
638.358141388301	-0.282440185546875	
639.358141385776	-0.254638671875	
640.358141383251	-0.235198974609375	
641.358141380726	-0.220733642578125	
642.358141378202	-0.209259033203125	
643.358141375677	-0.199737548828125	
644.358141373152	-0.19140625	
645.358141370627	-0.1829833984375	
646.358141368103	-0.17645263671875	
647.358141365578	-0.170654296875	
648.358141363053	-0.165679931640625	
649.358141360528	-0.161346435546875	
650.358141358004	-0.157501220703125	
651.358141355479	-0.154266357421875	
652.358141352954	-0.150909423828125	
653.358141350429	-0.1484375	
654.358141347905	-0.14581298828125	
655.35814134538	-0.14349365234375	
656.358141342855	-0.14117431640625	
657.35814134033	-0.1385498046875	
658.358141337805	-0.13671875	
659.358141335281	-0.1353759765625	
660.358141332756	-0.13421630859375	
661.358141330231	-0.132904052734375	
662.358141327706	-0.13201904296875	
663.358141325182	-0.1309814453125	
664.358141322657	-0.130218505859375	
665.358141320132	-0.1295166015625	
666.358141317607	-0.128814697265625	
667.358141315083	-0.128143310546875	
668.358141312558	-0.127716064453125	
669.358141310033	-0.127044677734375	
670.358141307508	-0.126129150390625	
671.358141304984	-0.12548828125	
672.358141302459	-0.124786376953125	
673.358141299934	-0.12396240234375	
674.358141297409	-0.1231689453125	
675.358141294885	-0.122283935546875	
676.35814129236	-0.12115478515625	
677.358141289835	-0.11993408203125	
678.35814128731	-0.1185302734375	
679.358141284786	-0.11669921875	
680.358141282261	-0.114593505859375	
681.358141279736	-0.112091064453125	
682.358141277211	-0.10943603515625	
683.358141274687	-0.106964111328125	
684.358141272162	-0.1043701171875	
685.358141269637	-0.1019287109375	
686.358141267112	-0.099700927734375	
687.358141264588	-0.097381591796875	
688.358141262063	-0.0953369140625	
689.358141259538	-0.093414306640625	
690.358141257013	-0.091461181640625	
691.358141254488	-0.089874267578125	
692.358141251964	-0.08819580078125	
693.358141249439	-0.086578369140625	
694.358141246914	-0.085052490234375	
695.358141244389	-0.083404541015625	
696.358141241865	-0.08184814453125	
697.35814123934	-0.08038330078125	
698.358141236815	-0.0791015625	
699.35814123429	-0.077850341796875	
700.358141231766	-0.07684326171875	
701.358141229241	-0.07550048828125	
702.358141226716	-0.07415771484375	
703.358141224191	-0.072784423828125	
704.358141221667	-0.0716552734375	
705.358141219142	-0.0701904296875	
706.358141216617	-0.068817138671875	
707.358141214092	-0.067657470703125	
708.358141211568	-0.066497802734375	
709.358141209043	-0.06524658203125	
710.358141206518	-0.0640869140625	
711.358141203993	-0.06292724609375	
712.358141201469	-0.0618896484375	
713.358141198944	-0.060943603515625	
714.358141196419	-0.059967041015625	
715.358141193894	-0.05889892578125	
716.35814119137	-0.057861328125	
717.358141188845	-0.0570068359375	
718.35814118632	-0.055816650390625	
719.358141183795	-0.054595947265625	
720.358141181271	-0.05328369140625	
721.358141178746	-0.05218505859375	
722.358141176221	-0.051025390625	
723.358141173696	-0.04974365234375	
724.358141171172	-0.048468017578125	
725.358141168647	-0.0473907470703125	
726.358141166122	-0.0462066650390625	
727.358141163597	-0.04508056640625	
728.358141161072	-0.0439239501953125	
729.358141158548	-0.0427764892578125	
730.358141156023	-0.0417022705078125	
731.358141153498	-0.0407257080078125	
732.358141150973	-0.0396881103515625	
733.358141148449	-0.038604736328125	
734.358141145924	-0.0375244140625	
735.358141143399	-0.0363800048828125	
736.358141140874	-0.0351715087890625	
737.35814113835	-0.0340667724609375	
738.358141135825	-0.0330963134765625	
739.3581411333	-0.0319061279296875	
740.358141130775	-0.03070068359375	
741.358141128251	-0.029473876953125	
742.358141125726	-0.028277587890625	
743.358141123201	-0.0271270751953125	
744.358141120676	-0.025933837890625	
745.358141118152	-0.0247589111328125	
746.358141115627	-0.023687744140625	
747.358141113102	-0.02259521484375	
748.358141110577	-0.021490478515625	
749.358141108053	-0.020379638671875	
750.358141105528	-0.0192230224609375	
751.358141103003	-0.0181243896484375	
752.358141100478	-0.0170440673828125	
753.358141097954	-0.0159576416015625	
754.358141095429	-0.0148773193359375	
755.358141092904	-0.01370849609375	
756.358141090379	-0.0125640869140625	
757.358141087855	-0.01143798828125	
758.35814108533	-0.0103973388671875	
759.358141082805	-0.00941162109375	
760.35814108028	-0.00830688476562499	
761.358141077755	-0.0072052001953125	
762.358141075231	-0.0061370849609375	
763.358141072706	-0.00516662597656251	
764.358141070181	-0.0041961669921875	
765.358141067656	-0.00325927734375001	
766.358141065132	-0.00226440429687499	
767.358141062607	-0.00127258300781249	
768.358141060082	-0.000323486328124997	
769.358141057557	0.000613403320312497	
770.358141055033	0.00157775878906249	
771.358141052508	0.0024993896484375	
772.358141049983	0.00342712402343751	
773.358141047458	0.00429382324218749	
774.358141044934	0.00516662597656251	
775.358141042409	0.00600585937500001	
776.358141039884	0.006793212890625	
777.358141037359	0.0075714111328125	
778.358141034835	0.0083343505859375	
779.35814103231	0.00905761718750001	
780.358141029785	0.0098388671875	
781.35814102726	0.0105133056640625	
782.358141024736	0.0111572265625	
783.358141022211	0.0117706298828125	
784.358141019686	0.01207275390625	
785.358141017161	0.0127166748046875	
786.358141014637	0.0133453369140625	
787.358141012112	0.0139556884765625	
788.358141009587	0.0144744873046875	
789.358141007062	0.014984130859375	
790.358141004538	0.01541748046875	
791.358141002013	0.0158843994140625	
792.358140999488	0.0162628173828125	
793.358140996963	0.016607666015625	
794.358140994438	0.0169097900390625	
795.358140991914	0.0171905517578125	
796.358140989389	0.01741943359375	
797.358140986864	0.017523193359375	
798.358140984339	0.0177642822265625	
799.358140981815	0.0179046630859375	
800.35814097929	0.0179962158203125	
801.358140976765	0.018048095703125	
802.35814097424	0.0180755615234375	
803.358140971716	0.0181060791015625	
804.358140969191	0.01810302734375	
805.358140966666	0.01807861328125	
806.358140964141	0.0180389404296875	
807.358140961617	0.01796875	
808.358140959092	0.0178985595703125	
809.358140956567	0.0178009033203125	
810.358140954042	0.01768798828125	
811.358140951518	0.0176025390625	
812.358140948993	0.017462158203125	
813.358140946468	0.0173919677734375	
