Time (s)	WE(1).Potential (V)
2.15422399456111	0.4847412109375
3.15422399203635	0.48504638671875
4.15422398951159	0.485321044921875
5.15422398698684	0.485595703125
6.15422398446208	0.48583984375
7.15422398193732	0.486114501953125
8.15422397941256	0.486358642578125
9.15422397688781	0.486602783203125
10.154223974363	0.48687744140625
11.1542239718383	0.48712158203125
12.1542239693135	0.48736572265625
13.1542239667888	0.48760986328125
14.154223964264	0.487823486328125
15.1542239617393	0.48809814453125
16.1542239592145	0.488372802734375
17.1542239566897	0.488616943359375
18.154223954165	0.488861083984375
19.1542239516402	0.4891357421875
20.1542239491155	0.4893798828125
21.1542239465907	0.489654541015625
22.154223944066	0.489898681640625
23.1542239415412	0.4901123046875
24.1542239390164	0.490386962890625
25.1542239364917	0.4906005859375
26.1542239339669	0.490814208984375
27.1542239314422	0.4910888671875
28.1542239289174	0.491302490234375
29.1542239263927	0.49151611328125
30.1542239238679	0.49176025390625
31.1542239213431	0.49200439453125
32.1542239188184	0.49224853515625
33.1542239162936	0.492462158203125
34.1542239137689	0.49267578125
35.1542239112441	0.492919921875
36.1542239087194	0.4931640625
37.1542239061946	0.493408203125
38.1542239036698	0.493682861328125
39.1542239011451	0.49395751953125
40.1542238986203	0.49420166015625
41.1542238960956	0.494476318359375
42.1542238935708	0.49468994140625
43.1542238910461	0.494873046875
44.1542238885213	0.49505615234375
45.1542238859965	0.495269775390625
46.1542238834718	0.495452880859375
47.154223880947	0.495635986328125
48.1542238784223	0.495880126953125
49.1542238758975	0.496063232421875
50.1542238733728	0.496246337890625
51.154223870848	0.4964599609375
52.1542238683232	0.49664306640625
53.1542238657985	0.496856689453125
54.1542238632737	0.497100830078125
55.154223860749	0.497314453125
56.1542238582242	0.497528076171875
57.1542238556995	0.49774169921875
58.1542238531747	0.497955322265625
59.1542238506499	0.498138427734375
60.1542238481252	0.498321533203125
61.1542238456004	0.49853515625
62.1542238430757	0.49871826171875
63.1542238405509	0.498931884765625
64.1542238380262	0.499267578125
65.1542238355014	0.49957275390625
66.1542238329766	0.4998779296875
67.1542238304519	0.4998779296875
68.1542238279271	0.50018310546875
69.1542238254024	0.50018310546875
70.1542238228776	0.50048828125
71.1542238203529	0.50079345703125
72.1542238178281	0.50079345703125
73.1542238153033	0.5010986328125
74.1542238127786	0.5010986328125
75.1542238102538	0.50140380859375
76.1542238077291	0.501708984375
77.1542238052043	0.50201416015625
78.1542238026796	0.50201416015625
79.1542238001548	0.5023193359375
80.15422379763	0.5023193359375
81.1542237951053	0.50262451171875
82.1542237925805	0.50262451171875
83.1542237900558	0.5029296875
84.154223787531	0.50323486328125
85.1542237850063	0.50323486328125
86.1542237824815	0.5035400390625
87.1542237799567	0.5035400390625
88.154223777432	0.50384521484375
89.1542237749072	0.504150390625
90.1542237723825	0.504150390625
91.1542237698577	0.50445556640625
92.154223767333	0.50445556640625
93.1542237648082	0.5047607421875
94.1542237622834	0.5047607421875
95.1542237597587	0.50506591796875
96.1542237572339	0.50537109375
97.1542237547092	0.50537109375
98.1542237521844	0.50567626953125
99.1542237496596	0.50567626953125
100.154223747135	0.5059814453125
101.15422374461	0.5059814453125
102.154223742085	0.50628662109375
103.154223739561	0.50628662109375
104.154223737036	0.50628662109375
105.154223734511	0.506591796875
106.154223731986	0.50689697265625
107.154223729462	0.50689697265625
108.154223726937	0.5072021484375
109.154223724412	0.5072021484375
110.154223721887	0.50750732421875
111.154223719363	0.50750732421875
112.154223716838	0.5078125
113.154223714313	0.5078125
114.154223711788	0.50811767578125
115.154223709264	0.5084228515625
116.154223706739	0.5084228515625
117.154223704214	0.50872802734375
118.154223701689	0.50872802734375
119.154223699165	0.509033203125
120.15422369664	0.509033203125
121.154223694115	0.50933837890625
122.15422369159	0.50933837890625
123.154223689065	0.5096435546875
124.154223686541	0.5096435546875
125.154223684016	0.50994873046875
126.154223681491	0.50994873046875
127.154223678966	0.51025390625
128.154223676442	0.51025390625
129.154223673917	0.51055908203125
130.154223671392	0.51055908203125
131.154223668867	0.5108642578125
132.154223666343	0.5108642578125
133.154223663818	0.51116943359375
134.154223661293	0.51116943359375
135.154223658768	0.511474609375
136.154223656244	0.511474609375
137.154223653719	0.51177978515625
138.154223651194	0.51177978515625
139.154223648669	0.5120849609375
140.154223646145	0.5120849609375
141.15422364362	0.51239013671875
142.154223641095	0.51239013671875
143.15422363857	0.5126953125
144.154223636046	0.5126953125
145.154223633521	0.51300048828125
146.154223630996	0.51300048828125
147.154223628471	0.5133056640625
148.154223625947	0.5133056640625
149.154223623422	0.5133056640625
150.154223620897	0.51361083984375
151.154223618372	0.51361083984375
152.154223615848	0.513916015625
153.154223613323	0.513916015625
154.154223610798	0.51422119140625
155.154223608273	0.51422119140625
156.154223605748	0.5145263671875
157.154223603224	0.5145263671875
158.154223600699	0.5145263671875
159.154223598174	0.51483154296875
160.154223595649	0.51483154296875
161.154223593125	0.51513671875
162.1542235906	0.51513671875
163.154223588075	0.51544189453125
164.15422358555	0.51544189453125
165.154223583026	0.5157470703125
166.154223580501	0.5157470703125
167.154223577976	0.51605224609375
168.154223575451	0.51605224609375
169.154223572927	0.516357421875
170.154223570402	0.516357421875
171.154223567877	0.51666259765625
172.154223565352	0.51666259765625
173.154223562828	0.51666259765625
174.154223560303	0.5169677734375
175.154223557778	0.5169677734375
176.154223555253	0.51727294921875
177.154223552729	0.51727294921875
178.154223550204	0.517578125
179.154223547679	0.517578125
180.154223545154	0.517578125
181.15422354263	0.51788330078125
