Time (s)	WE(1).Potential (V)
4456.90860974739	0.50506591796875
4457.90860974486	0.495513916015625
4458.90860974234	0.4884033203125
4459.90860973981	0.48291015625
4460.90860973729	0.478729248046875
4461.90860973476	0.475555419921875
4462.90860973224	0.47314453125
4463.90860972971	0.471343994140625
4464.90860972719	0.470001220703125
4465.90860972466	0.46905517578125
4466.90860972214	0.468414306640625
4467.90860971962	0.467987060546875
4468.90860971709	0.467742919921875
4469.90860971457	0.467620849609375
4470.90860971204	0.467620849609375
4471.90860970952	0.46771240234375
4472.90860970699	0.467803955078125
4473.90860970447	0.468017578125
4474.90860970194	0.46820068359375
4475.90860969942	0.46844482421875
4476.90860969689	0.468719482421875
4477.90860969437	0.468963623046875
4478.90860969184	0.469207763671875
4479.90860968932	0.469512939453125
4480.90860968679	0.46978759765625
4481.90860968427	0.4700927734375
4482.90860968174	0.470367431640625
4483.90860967922	0.47064208984375
4484.90860967669	0.47088623046875
4485.90860967417	0.47113037109375
4486.90860967164	0.471343994140625
4487.90860966912	0.4715576171875
4488.9086096666	0.471771240234375
4489.90860966407	0.471954345703125
4490.90860966155	0.472137451171875
4491.90860965902	0.4722900390625
4492.9086096565	0.472442626953125
4493.90860965397	0.472625732421875
4494.90860965145	0.472747802734375
4495.90860964892	0.472900390625
4496.9086096464	0.4730224609375
4497.90860964387	0.47314453125
4498.90860964135	0.473297119140625
4499.90860963882	0.473419189453125
4500.9086096363	0.473541259765625
4501.90860963377	0.473663330078125
4502.90860963125	0.473785400390625
4503.90860962872	0.473907470703125
4504.9086096262	0.4739990234375
4505.90860962367	0.47412109375
4506.90860962115	0.474212646484375
4507.90860961862	0.47430419921875
4508.9086096161	0.47442626953125
4509.90860961358	0.474517822265625
4510.90860961105	0.474609375
4511.90860960853	0.474700927734375
4512.908609606	0.47479248046875
4513.90860960348	0.474884033203125
4514.90860960095	0.474945068359375
4515.90860959843	0.475006103515625
4516.9086095959	0.47503662109375
4517.90860959338	0.475067138671875
4518.90860959085	0.47503662109375
4519.90860958833	0.475067138671875
4520.9086095858	0.475128173828125
4521.90860958328	0.475128173828125
4522.90860958075	0.475189208984375
4523.90860957823	0.4752197265625
4524.9086095757	0.475250244140625
4525.90860957318	0.47528076171875
4526.90860957065	0.475341796875
4527.90860956813	0.475372314453125
4528.9086095656	0.47540283203125
4529.90860956308	0.475433349609375
4530.90860956056	0.475433349609375
4531.90860955803	0.4754638671875
4532.90860955551	0.47552490234375
4533.90860955298	0.475555419921875
4534.90860955046	0.4755859375
4535.90860954793	0.4755859375
4536.90860954541	0.4755859375
4537.90860954288	0.4755859375
4538.90860954036	0.475616455078125
4539.90860953783	0.475616455078125
4540.90860953531	0.47564697265625
4541.90860953278	0.47564697265625
4542.90860953026	0.47564697265625
4543.90860952773	0.475677490234375
4544.90860952521	0.4757080078125
4545.90860952268	0.475738525390625
4546.90860952016	0.475738525390625
4547.90860951763	0.47576904296875
4548.90860951511	0.475799560546875
4549.90860951258	0.475830078125
4550.90860951006	0.475830078125
4551.90860950754	0.475830078125
4552.90860950501	0.475860595703125
4553.90860950249	0.475860595703125
4554.90860949996	0.47589111328125
4555.90860949744	0.47589111328125
4556.90860949491	0.47589111328125
4557.90860949239	0.475921630859375
4558.90860948986	0.4759521484375
4559.90860948734	0.4759521484375
4560.90860948481	0.4761962890625
4561.90860948229	0.476654052734375
4562.90860947976	0.477386474609375
4563.90860947724	0.477630615234375
4564.90860947471	0.47747802734375
4565.90860947219	0.47735595703125
4566.90860946966	0.477264404296875
4567.90860946714	0.477142333984375
4568.90860946461	0.477020263671875
4569.90860946209	0.476959228515625
4570.90860945957	0.476837158203125
4571.90860945704	0.476776123046875
4572.90860945452	0.476715087890625
4573.90860945199	0.476654052734375
4574.90860944947	0.47662353515625
4575.90860944694	0.4765625
4576.90860944442	0.476531982421875
4577.90860944189	0.47650146484375
4578.90860943937	0.47650146484375
4579.90860943684	0.476470947265625
4580.90860943432	0.476470947265625
4581.90860943179	0.476470947265625
4582.90860942927	0.4764404296875
4583.90860942674	0.4764404296875
4584.90860942422	0.4764404296875
4585.90860942169	0.4764404296875
4586.90860941917	0.476409912109375
4587.90860941664	0.47637939453125
4588.90860941412	0.476409912109375
4589.90860941159	0.47637939453125
4590.90860940907	0.47637939453125
4591.90860940655	0.47637939453125
4592.90860940402	0.47637939453125
4593.9086094015	0.47637939453125
4594.90860939897	0.476348876953125
4595.90860939645	0.476348876953125
4596.90860939392	0.476348876953125
4597.9086093914	0.47637939453125
4598.90860938887	0.47637939453125
4599.90860938635	0.476409912109375
4600.90860938382	0.476104736328125
4601.9086093813	0.475494384765625
4602.90860937877	0.474822998046875
4603.90860937625	0.4742431640625
4604.90860937372	0.47393798828125
4605.9086093712	0.47393798828125
4606.90860936867	0.473968505859375
4607.90860936615	0.4737548828125
4608.90860936362	0.473907470703125
4609.9086093611	0.4739990234375
4610.90860935857	0.47406005859375
4611.90860935605	0.47412109375
4612.90860935353	0.47418212890625
4613.908609351	0.474090576171875
4614.90860934848	0.474212646484375
4615.90860934595	0.4737548828125
4616.90860934343	0.47393798828125
4617.9086093409	0.4739990234375
4618.90860933838	0.47406005859375
4619.90860933585	0.47412109375
4620.90860933333	0.474151611328125
4621.9086093308	0.47418212890625
4622.90860932828	0.474212646484375
4623.90860932575	0.474212646484375
4624.90860932323	0.4742431640625
4625.9086093207	0.4742431640625
4626.90860931818	0.4742431640625
4627.90860931565	0.473419189453125
4628.90860931313	0.473663330078125
4629.9086093106	0.4737548828125
4630.90860930808	0.473785400390625
4631.90860930555	0.47381591796875
4632.90860930303	0.473876953125
4633.90860930051	0.473907470703125
4634.90860929798	0.47393798828125
4635.90860929546	0.47393798828125
