Time (s)	WE(1).Potential (V)	WE(1).Current (A)
71.2827478200284	0.79315185546875	8.04443359375E-05
71.3827478197759	0.79315185546875	7.9559326171875E-05
71.4827478195234	0.79345703125	7.958984375E-05
71.5827478192709	0.79345703125	7.97119140625E-05
71.6827478190185	0.79376220703125	7.97119140625E-05
71.782747818766	0.79376220703125	7.9559326171875E-05
71.8827478185135	0.7940673828125	7.9559326171875E-05
71.982747818261	0.7940673828125	8.0322265625E-05
72.0827478180086	0.7940673828125	8.026123046875E-05
72.1827478177561	0.79437255859375	8.0352783203125E-05
72.2827478175036	0.79437255859375	8.038330078125E-05
72.3827478172511	0.794677734375	8.04443359375E-05
72.4827478169987	0.794677734375	8.02001953125E-05
72.5827478167462	0.794677734375	8.0108642578125E-05
72.6827478164937	0.79498291015625	7.9742431640625E-05
72.7827478162412	0.79498291015625	7.9681396484375E-05
72.8827478159888	0.79498291015625	7.99560546875E-05
72.9827478157363	0.7952880859375	7.9559326171875E-05
73.0827478154838	0.7952880859375	7.9559326171875E-05
73.1827478152313	0.7952880859375	7.952880859375E-05
73.2827478149788	0.79559326171875	8.001708984375E-05
73.3827478147264	0.79559326171875	7.97119140625E-05
73.4827478144739	0.79559326171875	8.0230712890625E-05
73.5827478142214	0.7958984375	8.026123046875E-05
73.6827478139689	0.7958984375	8.0291748046875E-05
73.7827478137165	0.7958984375	8.0291748046875E-05
73.882747813464	0.79620361328125	8.0322265625E-05
73.9827478132115	0.79620361328125	8.026123046875E-05
74.082747812959	0.79620361328125	7.9833984375E-05
74.1827478127066	0.7965087890625	8.02001953125E-05
74.2827478124541	0.7965087890625	8.0291748046875E-05
74.3827478122016	0.7965087890625	7.989501953125E-05
74.4827478119491	0.79681396484375	7.9925537109375E-05
74.5827478116967	0.79681396484375	7.99560546875E-05
74.6827478114442	0.79681396484375	7.9559326171875E-05
74.7827478111917	0.797119140625	7.9681396484375E-05
74.8827478109392	0.797119140625	7.9742431640625E-05
74.9827478106868	0.797119140625	7.9620361328125E-05
75.0827478104343	0.79742431640625	7.9742431640625E-05
75.1827478101818	0.79742431640625	8.0352783203125E-05
75.2827478099293	0.79742431640625	7.958984375E-05
75.3827478096769	0.79742431640625	7.958984375E-05
75.4827478094244	0.7977294921875	7.9559326171875E-05
75.5827478091719	0.7977294921875	7.958984375E-05
75.6827478089194	0.7977294921875	7.9986572265625E-05
75.782747808667	0.79803466796875	8.0078125E-05
75.8827478084145	0.79803466796875	7.958984375E-05
75.982747808162	0.79803466796875	7.952880859375E-05
76.0827478079095	0.79833984375	7.958984375E-05
76.1827478076571	0.79833984375	7.9559326171875E-05
76.2827478074046	0.79833984375	7.965087890625E-05
76.3827478071521	0.79833984375	7.9620361328125E-05
76.4827478068996	0.79864501953125	7.958984375E-05
76.5827478066471	0.79864501953125	7.958984375E-05
76.6827478063947	0.79864501953125	7.958984375E-05
76.7827478061422	0.7989501953125	7.9681396484375E-05
76.8827478058897	0.7989501953125	7.958984375E-05
76.9827478056372	0.7989501953125	7.97119140625E-05
77.0827478053848	0.79925537109375	7.958984375E-05
77.1827478051323	0.79925537109375	7.9681396484375E-05
77.2827478048798	0.79925537109375	7.965087890625E-05
77.3827478046273	0.79925537109375	7.977294921875E-05
77.4827478043749	0.799560546875	7.965087890625E-05
77.5827478041224	0.799560546875	7.958984375E-05
77.6827478038699	0.799560546875	7.9681396484375E-05
77.7827478036174	0.799560546875	7.97119140625E-05
77.882747803365	0.79986572265625	8.0108642578125E-05
77.9827478031125	0.79986572265625	7.952880859375E-05
78.08274780286	0.79986572265625	7.9620361328125E-05
78.1827478026075	0.8001708984375	7.9925537109375E-05
78.2827478023551	0.8001708984375	8.013916015625E-05
78.3827478021026	0.8001708984375	8.0291748046875E-05
78.4827478018501	0.8001708984375	7.9620361328125E-05
78.5827478015976	0.80047607421875	7.952880859375E-05
78.6827478013452	0.80047607421875	7.9833984375E-05
78.7827478010927	0.80047607421875	8.038330078125E-05
78.8827478008402	0.80078125	8.0352783203125E-05
78.9827478005877	0.80078125	8.0291748046875E-05
79.0827478003353	0.80078125	7.94677734375E-05
79.1827478000828	0.80078125	7.9803466796875E-05
79.2827477998303	0.80108642578125	8.0352783203125E-05
79.3827477995778	0.80108642578125	8.0230712890625E-05
79.4827477993254	0.8013916015625	7.9803466796875E-05
79.5827477990729	0.8013916015625	7.97119140625E-05
79.6827477988204	0.8013916015625	7.97119140625E-05
79.7827477985679	0.8013916015625	8.0322265625E-05
79.8827477983154	0.8013916015625	7.9681396484375E-05
79.982747798063	0.80169677734375	7.9620361328125E-05
80.0827477978105	0.80169677734375	7.977294921875E-05
80.182747797558	0.80169677734375	8.0474853515625E-05
80.2827477973055	0.80169677734375	8.0078125E-05
80.3827477970531	0.80169677734375	7.9620361328125E-05
80.4827477968006	0.802001953125	7.9681396484375E-05
80.5827477965481	0.802001953125	8.0291748046875E-05
80.6827477962956	0.802001953125	8.0291748046875E-05
80.7827477960432	0.80230712890625	8.0413818359375E-05
80.8827477957907	0.80230712890625	7.9559326171875E-05
80.9827477955382	0.80230712890625	7.977294921875E-05
81.0827477952857	0.80230712890625	8.0352783203125E-05
81.1827477950333	0.8026123046875	8.0291748046875E-05
81.2827477947808	0.8026123046875	8.026123046875E-05
81.3827477945283	0.8026123046875	7.9803466796875E-05
81.4827477942758	0.80291748046875	7.9681396484375E-05
81.5827477940234	0.8026123046875	8.0322265625E-05
81.6827477937709	0.80291748046875	8.038330078125E-05
81.7827477935184	0.80291748046875	7.9559326171875E-05
81.8827477932659	0.80291748046875	8.0108642578125E-05
81.9827477930135	0.80291748046875	8.0047607421875E-05
82.082747792761	0.80291748046875	8.0322265625E-05
82.1827477925085	0.80322265625	8.038330078125E-05
82.282747792256	0.80322265625	7.9925537109375E-05
82.3827477920036	0.80322265625	7.9864501953125E-05
82.4827477917511	0.80322265625	8.0352783203125E-05
82.5827477914986	0.8038330078125	8.038330078125E-05
82.6827477912461	0.8038330078125	8.038330078125E-05
82.7827477909937	0.80322265625	8.001708984375E-05
82.8827477907412	0.80352783203125	7.9498291015625E-05
82.9827477904887	0.8038330078125	7.9498291015625E-05
83.0827477902362	0.80322265625	8.038330078125E-05
83.1827477899838	0.80352783203125	8.038330078125E-05
83.2827477897313	0.8038330078125	8.0230712890625E-05
83.3827477894788	0.80322265625	7.977294921875E-05
83.4827477892263	0.80352783203125	8.013916015625E-05
83.5827477889738	0.8038330078125	8.026123046875E-05
83.6827477887214	0.80352783203125	8.026123046875E-05
83.7827477884689	0.8038330078125	8.0230712890625E-05
83.8827477882164	0.80413818359375	7.977294921875E-05
83.9827477879639	0.8038330078125	7.9498291015625E-05
84.0827477877115	0.80413818359375	8.0291748046875E-05
84.182747787459	0.80413818359375	8.0078125E-05
84.2827477872065	0.80413818359375	8.0230712890625E-05
84.382747786954	0.804443359375	8.0291748046875E-05
84.4827477867016	0.804443359375	7.97119140625E-05
84.5827477864491	0.804443359375	8.001708984375E-05
84.6827477861966	0.804443359375	8.0413818359375E-05
84.7827477859441	0.80474853515625	8.026123046875E-05
84.8827477856917	0.80474853515625	8.013916015625E-05
84.9827477854392	0.80474853515625	7.9803466796875E-05
85.0827477851867	0.8050537109375	7.9559326171875E-05
85.1827477849342	0.8050537109375	8.0322265625E-05
85.2827477846818	0.8050537109375	7.9681396484375E-05
85.3827477844293	0.8050537109375	7.9925537109375E-05
85.4827477841768	0.8050537109375	8.0047607421875E-05
85.5827477839243	0.8050537109375	7.9620361328125E-05
85.6827477836719	0.80535888671875	7.9803466796875E-05
85.7827477834194	0.80535888671875	7.9833984375E-05
85.8827477831669	0.80535888671875	7.9681396484375E-05
85.9827477829144	0.8056640625	7.9864501953125E-05
86.082747782662	0.8056640625	7.9925537109375E-05
86.1827477824095	0.8056640625	7.9742431640625E-05
86.282747782157	0.8056640625	7.9620361328125E-05
86.3827477819045	0.8056640625	7.965087890625E-05
86.4827477816521	0.8056640625	7.9620361328125E-05
86.5827477813996	0.80596923828125	7.97119140625E-05
86.6827477811471	0.80596923828125	7.977294921875E-05
86.7827477808946	0.80596923828125	7.952880859375E-05
86.8827477806421	0.8062744140625	7.958984375E-05
86.9827477803897	0.80596923828125	7.9742431640625E-05
87.0827477801372	0.80596923828125	8.026123046875E-05
87.1827477798847	0.8062744140625	7.99560546875E-05
87.2827477796322	0.8062744140625	7.9681396484375E-05
87.3827477793798	0.80657958984375	7.958984375E-05
87.4827477791273	0.80657958984375	8.001708984375E-05
87.5827477788748	0.80596923828125	7.97119140625E-05
87.6827477786223	0.8062744140625	7.9833984375E-05
87.7827477783699	0.80657958984375	7.9986572265625E-05
87.8827477781174	0.8056640625	7.94677734375E-05
87.9827477778649	0.8062744140625	7.965087890625E-05
88.0827477776124	0.80596923828125	8.0047607421875E-05
88.18274777736	0.80596923828125	7.989501953125E-05
88.2827477771075	0.8062744140625	8.026123046875E-05
88.382747776855	0.80657958984375	8.02001953125E-05
88.4827477766025	0.8062744140625	7.9833984375E-05
88.5827477763501	0.80413818359375	8.0352783203125E-05
88.6827477760976	0.80596923828125	8.026123046875E-05
88.7827477758451	0.80352783203125	8.0413818359375E-05
88.8827477755926	0.8056640625	8.0291748046875E-05
88.9827477753402	0.80413818359375	8.0291748046875E-05
89.0827477750877	0.8056640625	7.958984375E-05
89.1827477748352	0.80291748046875	8.038330078125E-05
89.2827477745827	0.8056640625	8.0322265625E-05
89.3827477743303	0.80413818359375	8.0322265625E-05
89.4827477740778	0.80535888671875	8.038330078125E-05
89.5827477738253	0.80596923828125	7.958984375E-05
89.6827477735728	0.8050537109375	7.952880859375E-05
89.7827477733204	0.80535888671875	8.0169677734375E-05
89.8827477730679	0.8062744140625	8.026123046875E-05
89.9827477728154	0.8056640625	8.026123046875E-05
90.0827477725629	0.80169677734375	7.9986572265625E-05
90.1827477723104	0.8050537109375	7.9803466796875E-05
90.282747772058	0.80169677734375	8.026123046875E-05
90.3827477718055	0.8038330078125	8.0169677734375E-05
90.482747771553	0.80474853515625	8.0322265625E-05
90.5827477713005	0.8038330078125	8.0322265625E-05
90.6827477710481	0.80413818359375	8.0078125E-05
90.7827477707956	0.8050537109375	8.0047607421875E-05
90.8827477705431	0.80474853515625	8.0352783203125E-05
90.9827477702906	0.80535888671875	8.026123046875E-05
91.0827477700382	0.80474853515625	8.0322265625E-05
91.1827477697857	0.8056640625	8.0322265625E-05
91.2827477695332	0.80413818359375	8.0078125E-05
91.3827477692807	0.80596923828125	8.026123046875E-05
91.4827477690283	0.80413818359375	8.038330078125E-05
91.5827477687758	0.8050537109375	8.026123046875E-05
91.6827477685233	0.80474853515625	8.0322265625E-05
91.7827477682708	0.8056640625	8.0230712890625E-05
91.8827477680184	0.80413818359375	7.99560546875E-05
91.9827477677659	0.80474853515625	8.038330078125E-05
92.0827477675134	0.80535888671875	8.0322265625E-05
92.1827477672609	0.80474853515625	8.026123046875E-05
92.2827477670085	0.8050537109375	8.0291748046875E-05
92.382747766756	0.8050537109375	7.952880859375E-05
92.4827477665035	0.8056640625	7.952880859375E-05
92.582747766251	0.80352783203125	8.038330078125E-05
92.6827477659986	0.8056640625	8.026123046875E-05
92.7827477657461	0.8038330078125	8.0322265625E-05
92.8827477654936	0.80596923828125	8.026123046875E-05
92.9827477652411	0.8038330078125	7.99560546875E-05
93.0827477649887	0.80596923828125	8.0352783203125E-05
93.1827477647362	0.80474853515625	8.0322265625E-05
93.2827477644837	0.80596923828125	8.0352783203125E-05
93.3827477642312	0.80535888671875	8.0352783203125E-05
93.4827477639788	0.8056640625	7.9925537109375E-05
93.5827477637263	0.8062744140625	8.0352783203125E-05
93.6827477634738	0.80596923828125	8.0230712890625E-05
93.7827477632213	0.80657958984375	8.0322265625E-05
93.8827477629688	0.8050537109375	8.0322265625E-05
93.9827477627164	0.80657958984375	8.0322265625E-05
94.0827477624639	0.8050537109375	8.0047607421875E-05
94.1827477622114	0.8050537109375	7.99560546875E-05
94.2827477619589	0.8062744140625	8.0322265625E-05
94.3827477617065	0.80352783203125	8.038330078125E-05
94.482747761454	0.8062744140625	8.0413818359375E-05
94.5827477612015	0.80230712890625	8.038330078125E-05
94.682747760949	0.8056640625	7.9559326171875E-05
94.7827477606966	0.80474853515625	7.9864501953125E-05
94.8827477604441	0.80596923828125	8.0352783203125E-05
94.9827477601916	0.80291748046875	8.0413818359375E-05
95.0827477599391	0.8050537109375	8.0352783203125E-05
95.1827477596867	0.8062744140625	7.9498291015625E-05
95.2827477594342	0.8026123046875	7.9498291015625E-05
95.3827477591817	0.80657958984375	7.9803466796875E-05
95.4827477589292	0.80352783203125	8.04443359375E-05
95.5827477586768	0.80596923828125	8.0352783203125E-05
95.6827477584243	0.8038330078125	8.0322265625E-05
95.7827477581718	0.8050537109375	7.9498291015625E-05
95.8827477579193	0.8026123046875	7.989501953125E-05
95.9827477576669	0.80291748046875	8.0413818359375E-05
96.0827477574144	0.80535888671875	8.0413818359375E-05
96.1827477571619	0.8013916015625	8.026123046875E-05
96.2827477569094	0.8056640625	7.9437255859375E-05
96.382747756657	0.80108642578125	7.94677734375E-05
96.4827477564045	0.80535888671875	8.026123046875E-05
96.582747756152	0.80078125	8.038330078125E-05
96.6827477558995	0.80535888671875	8.0352783203125E-05
96.7827477556471	0.80108642578125	8.0352783203125E-05
96.8827477553946	0.80352783203125	7.989501953125E-05
96.9827477551421	0.80413818359375	7.965087890625E-05
97.0827477548896	0.79925537109375	8.013916015625E-05
97.1827477546371	0.80535888671875	8.0322265625E-05
97.2827477543847	0.8001708984375	8.0322265625E-05
97.3827477541322	0.8056640625	8.0047607421875E-05
97.4827477538797	0.80047607421875	8.038330078125E-05
97.5827477536272	0.804443359375	7.9833984375E-05
97.6827477533748	0.80352783203125	8.0322265625E-05
97.7827477531223	0.80291748046875	8.0322265625E-05
97.8827477528698	0.8056640625	8.0291748046875E-05
97.9827477526173	0.8013916015625	8.0322265625E-05
98.0827477523649	0.80474853515625	7.9681396484375E-05
98.1827477521124	0.80535888671875	7.989501953125E-05
98.2827477518599	0.80352783203125	8.0413818359375E-05
98.3827477516074	0.8062744140625	8.038330078125E-05
98.482747751355	0.80322265625	8.0322265625E-05
98.5827477511025	0.8056640625	8.0322265625E-05
98.68274775085	0.80169677734375	7.9620361328125E-05
98.7827477505975	0.80352783203125	7.989501953125E-05
98.8827477503451	0.80535888671875	8.038330078125E-05
98.9827477500926	0.80352783203125	8.038330078125E-05
99.0827477498401	0.8062744140625	7.977294921875E-05
99.1827477495876	0.80291748046875	7.952880859375E-05
99.2827477493352	0.8056640625	7.952880859375E-05
99.3827477490827	0.8013916015625	7.9620361328125E-05
99.4827477488302	0.80352783203125	8.0169677734375E-05
99.5827477485777	0.8062744140625	8.038330078125E-05
99.6827477483253	0.80078125	7.9498291015625E-05
99.7827477480728	0.8050537109375	7.9498291015625E-05
99.8827477478203	0.7977294921875	7.9681396484375E-05
99.9827477475678	0.8050537109375	7.9833984375E-05
100.082747747315	0.79925537109375	8.0352783203125E-05
100.182747747063	0.80413818359375	7.9803466796875E-05
100.28274774681	0.80322265625	7.989501953125E-05
100.382747746558	0.799560546875	7.9498291015625E-05
100.482747746305	0.8050537109375	7.952880859375E-05
100.582747746053	0.8013916015625	8.0047607421875E-05
100.682747745801	0.80474853515625	8.0352783203125E-05
100.782747745548	0.80413818359375	7.989501953125E-05
100.882747745296	0.80322265625	7.9559326171875E-05
100.982747745043	0.8056640625	7.9498291015625E-05
101.082747744791	0.8038330078125	7.965087890625E-05
101.182747744538	0.80596923828125	7.99560546875E-05
101.282747744286	0.802001953125	8.038330078125E-05
101.382747744033	0.80596923828125	8.04443359375E-05
101.482747743781	0.802001953125	7.958984375E-05
101.582747743528	0.804443359375	7.952880859375E-05
101.682747743276	0.8062744140625	7.9559326171875E-05
101.782747743023	0.80291748046875	7.9833984375E-05
101.882747742771	0.80535888671875	7.965087890625E-05
101.982747742518	0.8038330078125	7.9833984375E-05
102.082747742266	0.80047607421875	7.9742431640625E-05
102.182747742013	0.8050537109375	7.9498291015625E-05
102.282747741761	0.8038330078125	7.952880859375E-05
102.382747741508	0.80291748046875	7.9803466796875E-05
102.482747741256	0.80596923828125	7.952880859375E-05
102.582747741003	0.80169677734375	7.9803466796875E-05
102.682747740751	0.80535888671875	7.9986572265625E-05
102.782747740499	0.80474853515625	7.952880859375E-05
102.882747740246	0.80474853515625	7.9559326171875E-05
102.982747739994	0.8062744140625	7.9986572265625E-05
103.082747739741	0.80474853515625	8.02001953125E-05
103.182747739489	0.8062744140625	8.0047607421875E-05
103.282747739236	0.80474853515625	7.977294921875E-05
103.382747738984	0.8062744140625	7.9559326171875E-05
103.482747738731	0.80352783203125	7.9681396484375E-05
103.582747738479	0.80535888671875	8.04443359375E-05
103.682747738226	0.80718994140625	7.958984375E-05
103.782747737974	0.804443359375	7.9681396484375E-05
103.882747737721	0.8062744140625	7.97119140625E-05
103.982747737469	0.80657958984375	7.9559326171875E-05
104.082747737216	0.8062744140625	8.038330078125E-05
104.182747736964	0.8062744140625	8.050537109375E-05
104.282747736711	0.806884765625	7.9833984375E-05
104.382747736459	0.8056640625	7.9803466796875E-05
104.482747736206	0.806884765625	7.9559326171875E-05
104.582747735954	0.8056640625	7.9498291015625E-05
104.682747735701	0.80718994140625	8.04443359375E-05
104.782747735449	0.80596923828125	7.977294921875E-05
104.882747735197	0.80535888671875	8.0169677734375E-05
104.982747734944	0.80780029296875	8.02001953125E-05
105.082747734692	0.8062744140625	7.989501953125E-05
105.182747734439	0.80718994140625	7.9559326171875E-05
105.282747734187	0.806884765625	7.958984375E-05
105.382747733934	0.8056640625	8.0352783203125E-05
105.482747733682	0.8074951171875	8.0291748046875E-05
105.582747733429	0.8074951171875	8.0322265625E-05
105.682747733177	0.80596923828125	8.0078125E-05
105.782747732924	0.8074951171875	7.952880859375E-05
105.882747732672	0.806884765625	8.0291748046875E-05
105.982747732419	0.80780029296875	8.0413818359375E-05
106.082747732167	0.8074951171875	8.0291748046875E-05
106.182747731914	0.80810546875	8.038330078125E-05
106.282747731662	0.80810546875	8.02001953125E-05
106.382747731409	0.8074951171875	8.0322265625E-05
106.482747731157	0.80841064453125	8.0413818359375E-05
106.582747730904	0.8074951171875	8.0413818359375E-05
106.682747730652	0.80841064453125	8.0413818359375E-05
106.782747730399	0.80780029296875	8.038330078125E-05
106.882747730147	0.80841064453125	7.965087890625E-05
106.982747729895	0.8087158203125	8.0047607421875E-05
107.082747729642	0.80718994140625	8.0108642578125E-05
107.18274772939	0.80902099609375	7.9833984375E-05
107.282747729137	0.80718994140625	7.9925537109375E-05
107.382747728885	0.8087158203125	8.026123046875E-05
107.482747728632	0.80810546875	7.952880859375E-05
107.58274772838	0.80657958984375	7.965087890625E-05
107.682747728127	0.809326171875	7.97119140625E-05
107.782747727875	0.80718994140625	7.97119140625E-05
107.882747727622	0.80841064453125	7.965087890625E-05
107.98274772737	0.80718994140625	7.989501953125E-05
108.082747727117	0.80718994140625	7.9498291015625E-05
108.182747726865	0.80902099609375	7.9620361328125E-05
108.282747726612	0.80780029296875	7.965087890625E-05
108.38274772636	0.80322265625	7.952880859375E-05
108.482747726107	0.8087158203125	7.9620361328125E-05
108.582747725855	0.80657958984375	8.0322265625E-05
108.682747725602	0.80474853515625	7.9498291015625E-05
108.78274772535	0.80963134765625	7.9681396484375E-05
108.882747725097	0.80413818359375	7.958984375E-05
108.982747724845	0.80780029296875	7.9559326171875E-05
109.082747724593	0.8074951171875	8.0078125E-05
109.18274772434	0.8062744140625	8.038330078125E-05
109.282747724088	0.80902099609375	7.9498291015625E-05
109.382747723835	0.80718994140625	7.9559326171875E-05
109.482747723583	0.80841064453125	7.9559326171875E-05
109.58274772333	0.8056640625	7.952880859375E-05
109.682747723078	0.80780029296875	7.9498291015625E-05
109.782747722825	0.809326171875	7.9803466796875E-05
109.882747722573	0.80841064453125	7.952880859375E-05
109.98274772232	0.80841064453125	7.952880859375E-05
110.082747722068	0.809326171875	7.94677734375E-05
110.182747721815	0.8074951171875	7.952880859375E-05
110.282747721563	0.80902099609375	7.958984375E-05
110.38274772131	0.80902099609375	8.0230712890625E-05
110.482747721058	0.8062744140625	7.9620361328125E-05
110.582747720805	0.80963134765625	7.977294921875E-05
110.682747720553	0.8087158203125	7.9925537109375E-05
110.7827477203	0.8074951171875	8.0474853515625E-05
110.882747720048	0.8099365234375	8.0474853515625E-05
110.982747719796	0.80657958984375	8.0413818359375E-05
111.082747719543	0.80963134765625	8.0169677734375E-05
111.182747719291	0.80780029296875	7.9864501953125E-05
111.282747719038	0.8074951171875	7.97119140625E-05
111.382747718786	0.8099365234375	8.001708984375E-05
111.482747718533	0.80810546875	8.04443359375E-05
111.582747718281	0.80718994140625	8.0322265625E-05
111.682747718028	0.81024169921875	8.0291748046875E-05
111.782747717776	0.80718994140625	8.0047607421875E-05
111.882747717523	0.806884765625	7.977294921875E-05
111.982747717271	0.80902099609375	7.965087890625E-05
112.082747717018	0.804443359375	8.0413818359375E-05
112.182747716766	0.80780029296875	8.0322265625E-05
112.282747716513	0.8062744140625	7.99560546875E-05
112.382747716261	0.8026123046875	8.001708984375E-05
112.482747716008	0.80810546875	7.9681396484375E-05
112.582747715756	0.8056640625	8.0108642578125E-05
112.682747715503	0.802001953125	8.0413818359375E-05
112.782747715251	0.80810546875	8.0230712890625E-05
112.882747714998	0.804443359375	7.9833984375E-05
112.982747714746	0.80322265625	7.9559326171875E-05
113.082747714494	0.809326171875	7.9498291015625E-05
113.182747714241	0.8062744140625	8.038330078125E-05
113.282747713989	0.8050537109375	8.0352783203125E-05
113.382747713736	0.80902099609375	7.9986572265625E-05
113.482747713484	0.804443359375	8.0108642578125E-05
113.582747713231	0.8056640625	7.958984375E-05
113.682747712979	0.80902099609375	8.0291748046875E-05
113.782747712726	0.804443359375	8.0352783203125E-05
113.882747712474	0.80535888671875	8.026123046875E-05
113.982747712221	0.8062744140625	8.02001953125E-05
114.082747711969	0.799560546875	7.952880859375E-05
114.182747711716	0.8062744140625	8.0108642578125E-05
114.282747711464	0.80474853515625	8.026123046875E-05
114.382747711211	0.79864501953125	8.04443359375E-05
114.482747710959	0.8074951171875	8.001708984375E-05
114.582747710706	0.804443359375	7.9742431640625E-05
114.682747710454	0.80474853515625	8.0413818359375E-05
114.782747710201	0.80810546875	8.0230712890625E-05
114.882747709949	0.80352783203125	8.0413818359375E-05
114.982747709696	0.80474853515625	8.04443359375E-05
115.082747709444	0.80474853515625	8.013916015625E-05
115.182747709192	0.80108642578125	7.97119140625E-05
115.282747708939	0.8056640625	8.04443359375E-05
115.382747708687	0.80413818359375	8.0047607421875E-05
115.482747708434	0.7952880859375	8.0352783203125E-05
115.582747708182	0.8062744140625	8.0474853515625E-05
115.682747707929	0.80291748046875	8.0108642578125E-05
115.782747707677	0.80291748046875	7.977294921875E-05
115.882747707424	0.8074951171875	7.9620361328125E-05
115.982747707172	0.80413818359375	7.989501953125E-05
116.082747706919	0.8026123046875	8.0230712890625E-05
116.182747706667	0.806884765625	8.026123046875E-05
116.282747706414	0.79864501953125	8.001708984375E-05
116.382747706162	0.8038330078125	7.9498291015625E-05
116.482747705909	0.80352783203125	7.99560546875E-05
116.582747705657	0.7965087890625	8.0230712890625E-05
116.682747705404	0.8050537109375	8.0322265625E-05
116.782747705152	0.8013916015625	8.0291748046875E-05
116.882747704899	0.79620361328125	7.9437255859375E-05
116.982747704647	0.80596923828125	7.965087890625E-05
117.082747704394	0.80322265625	7.97119140625E-05
117.182747704142	0.79864501953125	8.0047607421875E-05
117.28274770389	0.8062744140625	8.0413818359375E-05
117.382747703637	0.79925537109375	8.0413818359375E-05
117.482747703385	0.80352783203125	8.0230712890625E-05
117.582747703132	0.80291748046875	7.958984375E-05
117.68274770288	0.797119140625	7.9620361328125E-05
117.782747702627	0.804443359375	7.965087890625E-05
117.882747702375	0.8013916015625	8.038330078125E-05
117.982747702122	0.79986572265625	8.0352783203125E-05
118.08274770187	0.80657958984375	8.04443359375E-05
118.182747701617	0.80322265625	7.9498291015625E-05
118.282747701365	0.80413818359375	7.952880859375E-05
118.382747701112	0.80291748046875	7.9681396484375E-05
118.48274770086	0.80291748046875	8.0169677734375E-05
118.582747700607	0.80596923828125	7.977294921875E-05
118.682747700355	0.80413818359375	7.952880859375E-05
118.782747700102	0.80535888671875	7.952880859375E-05
118.88274769985	0.804443359375	7.9559326171875E-05
118.982747699597	0.80322265625	7.9925537109375E-05
119.082747699345	0.80474853515625	8.0352783203125E-05
119.182747699092	0.80352783203125	7.9498291015625E-05
119.28274769884	0.7977294921875	7.952880859375E-05
119.382747698588	0.80535888671875	7.9559326171875E-05
119.482747698335	0.80230712890625	7.952880859375E-05
119.582747698083	0.79559326171875	7.958984375E-05
119.68274769783	0.80474853515625	7.97119140625E-05
119.782747697578	0.80078125	7.952880859375E-05
119.882747697325	0.80169677734375	7.9498291015625E-05
119.982747697073	0.8062744140625	7.952880859375E-05
120.08274769682	0.79864501953125	7.958984375E-05
120.182747696568	0.8013916015625	7.9833984375E-05
120.282747696315	0.804443359375	8.0291748046875E-05
120.382747696063	0.79193115234375	7.952880859375E-05
120.48274769581	0.80352783203125	7.958984375E-05
120.582747695558	0.80169677734375	7.9559326171875E-05
120.682747695305	0.79620361328125	7.965087890625E-05
120.782747695053	0.80352783203125	8.0413818359375E-05
120.8827476948	0.80078125	8.04443359375E-05
120.982747694548	0.8038330078125	7.958984375E-05
121.082747694295	0.80230712890625	7.952880859375E-05
121.182747694043	0.804443359375	7.9498291015625E-05
121.282747693791	0.8001708984375	7.9833984375E-05
121.382747693538	0.80078125	8.0352783203125E-05
121.482747693286	0.8038330078125	7.952880859375E-05
121.582747693033	0.8001708984375	7.952880859375E-05
121.682747692781	0.7989501953125	7.9559326171875E-05
121.782747692528	0.804443359375	7.958984375E-05
121.882747692276	0.80047607421875	8.0413818359375E-05
121.982747692023	0.797119140625	8.0352783203125E-05
122.082747691771	0.804443359375	7.9498291015625E-05
122.182747691518	0.7989501953125	7.952880859375E-05
122.282747691266	0.794677734375	7.9559326171875E-05
122.382747691013	0.804443359375	7.9620361328125E-05
122.482747690761	0.79864501953125	7.9681396484375E-05
122.582747690508	0.79986572265625	7.94677734375E-05
122.682747690256	0.8056640625	7.9559326171875E-05
122.782747690003	0.799560546875	7.9681396484375E-05
122.882747689751	0.80108642578125	7.9559326171875E-05
122.982747689498	0.8026123046875	7.965087890625E-05
123.082747689246	0.79345703125	7.9559326171875E-05
123.182747688993	0.80230712890625	7.965087890625E-05
123.282747688741	0.8013916015625	7.9681396484375E-05
123.382747688489	0.80108642578125	7.977294921875E-05
123.482747688236	0.80352783203125	7.9742431640625E-05
123.582747687984	0.80230712890625	8.0352783203125E-05
123.682747687731	0.802001953125	8.0352783203125E-05
123.782747687479	0.80352783203125	7.99560546875E-05
123.882747687226	0.7952880859375	8.0230712890625E-05
123.982747686974	0.8001708984375	8.0291748046875E-05
124.082747686721	0.80169677734375	7.9833984375E-05
124.182747686469	0.794677734375	8.050537109375E-05
124.282747686216	0.8013916015625	8.0322265625E-05
124.382747685964	0.797119140625	8.038330078125E-05
124.482747685711	0.78826904296875	8.038330078125E-05
124.582747685459	0.80230712890625	8.038330078125E-05
124.682747685206	0.79833984375	7.94677734375E-05
124.782747684954	0.79986572265625	7.9803466796875E-05
124.882747684701	0.80291748046875	8.0322265625E-05
124.982747684449	0.79864501953125	8.0078125E-05
125.082747684196	0.80078125	8.026123046875E-05
125.182747683944	0.80352783203125	8.038330078125E-05
125.282747683691	0.7977294921875	7.9559326171875E-05
125.382747683439	0.799560546875	8.013916015625E-05
125.482747683187	0.8026123046875	7.9681396484375E-05
125.582747682934	0.7958984375	7.9742431640625E-05
125.682747682682	0.8013916015625	7.97119140625E-05
125.782747682429	0.79986572265625	8.0322265625E-05
125.882747682177	0.79620361328125	7.9986572265625E-05
125.982747681924	0.8013916015625	7.99560546875E-05
126.082747681672	0.8026123046875	7.9742431640625E-05
126.182747681419	0.79986572265625	7.965087890625E-05
126.282747681167	0.80230712890625	7.9742431640625E-05
126.382747680914	0.80291748046875	8.04443359375E-05
126.482747680662	0.7989501953125	7.958984375E-05
126.582747680409	0.802001953125	7.9681396484375E-05
126.682747680157	0.80230712890625	7.952880859375E-05
126.782747679904	0.80291748046875	7.9498291015625E-05
126.882747679652	0.80108642578125	8.0596923828125E-05
126.982747679399	0.80352783203125	8.04443359375E-05
127.082747679147	0.80413818359375	7.952880859375E-05
127.182747678894	0.799560546875	7.9559326171875E-05
127.282747678642	0.80352783203125	7.952880859375E-05
127.382747678389	0.80352783203125	7.9559326171875E-05
127.482747678137	0.80078125	7.94677734375E-05
127.582747677885	0.80291748046875	7.9559326171875E-05
127.682747677632	0.80413818359375	7.952880859375E-05
127.78274767738	0.79925537109375	7.958984375E-05
127.882747677127	0.80047607421875	7.952880859375E-05
127.982747676875	0.8038330078125	7.9620361328125E-05
128.082747676622	0.79833984375	7.958984375E-05
128.18274767637	0.8026123046875	7.9559326171875E-05
128.282747676117	0.8038330078125	7.9559326171875E-05
128.382747675865	0.799560546875	7.952880859375E-05
128.482747675612	0.80291748046875	7.9498291015625E-05
128.58274767536	0.80474853515625	8.0474853515625E-05
128.682747675107	0.7977294921875	8.04443359375E-05
128.782747674855	0.8026123046875	7.9437255859375E-05
128.882747674602	0.80230712890625	7.94677734375E-05
128.98274767435	0.79925537109375	7.9559326171875E-05
129.082747674097	0.8038330078125	7.9345703125E-05
129.182747673845	0.79986572265625	8.0718994140625E-05
129.282747673592	0.80108642578125	7.9254150390625E-05
129.38274767334	0.804443359375	7.9193115234375E-05
129.482747673087	0.80108642578125	7.9071044921875E-05
129.582747672835	0.80230712890625	7.9132080078125E-05
129.682747672583	0.804443359375	7.9376220703125E-05
129.78274767233	0.8001708984375	8.0108642578125E-05
129.882747672078	0.80230712890625	7.92236328125E-05
129.982747671825	0.80474853515625	7.9193115234375E-05
130.082747671573	0.7977294921875	7.91015625E-05
130.18274767132	0.80322265625	7.9193115234375E-05
130.282747671068	0.80322265625	7.916259765625E-05
130.382747670815	0.79925537109375	7.9742431640625E-05
130.482747670563	0.80291748046875	7.9132080078125E-05
130.58274767031	0.80413818359375	7.9193115234375E-05
130.682747670058	0.7965087890625	7.9559326171875E-05
130.782747669805	0.80291748046875	7.904052734375E-05
130.882747669553	0.79833984375	7.904052734375E-05
130.9827476693	0.79742431640625	8.0535888671875E-05
131.082747669048	0.804443359375	8.0291748046875E-05
131.182747668795	0.79833984375	8.0169677734375E-05
131.282747668543	0.80108642578125	8.0322265625E-05
131.38274766829	0.804443359375	8.0718994140625E-05
131.482747668038	0.80047607421875	8.087158203125E-05
131.582747667786	0.8013916015625	8.087158203125E-05
131.682747667533	0.80322265625	8.0841064453125E-05
131.782747667281	0.7989501953125	8.09326171875E-05
131.882747667028	0.80230712890625	8.062744140625E-05
131.982747666776	0.80108642578125	8.10546875E-05
132.082747666523	0.79803466796875	8.0596923828125E-05
132.182747666271	0.8026123046875	8.09326171875E-05
132.282747666018	0.80230712890625	8.0718994140625E-05
132.382747665766	0.79742431640625	8.074951171875E-05
132.482747665513	0.80322265625	7.9010009765625E-05
132.582747665261	0.8026123046875	7.9071044921875E-05
132.682747665008	0.7977294921875	7.9925537109375E-05
132.782747664756	0.80352783203125	8.0078125E-05
132.882747664503	0.80352783203125	8.0108642578125E-05
132.982747664251	0.79833984375	8.038330078125E-05
133.082747663998	0.80322265625	7.9193115234375E-05
133.182747663746	0.8026123046875	7.89794921875E-05
133.282747663493	0.79864501953125	7.916259765625E-05
133.382747663241	0.80169677734375	7.9498291015625E-05
133.482747662988	0.80322265625	7.9132080078125E-05
133.582747662736	0.80108642578125	8.099365234375E-05
133.682747662484	0.80169677734375	8.087158203125E-05
133.782747662231	0.8038330078125	7.8948974609375E-05
133.882747661979	0.80352783203125	7.9010009765625E-05
133.982747661726	0.80108642578125	7.9193115234375E-05
134.082747661474	0.80322265625	7.9254150390625E-05
134.182747661221	0.80322265625	8.123779296875E-05
134.282747660969	0.80169677734375	8.04443359375E-05
134.382747660716	0.80230712890625	7.89794921875E-05
134.482747660464	0.80413818359375	7.879638671875E-05
134.582747660211	0.8001708984375	7.8857421875E-05
134.682747659959	0.802001953125	7.9254150390625E-05
134.782747659706	0.804443359375	7.9376220703125E-05
134.882747659454	0.79803466796875	8.0535888671875E-05
134.982747659201	0.80047607421875	7.9345703125E-05
135.082747658949	0.8038330078125	7.879638671875E-05
135.182747658696	0.79986572265625	7.87353515625E-05
135.282747658444	0.80108642578125	7.867431640625E-05
135.382747658191	0.80413818359375	8.099365234375E-05
135.482747657939	0.80230712890625	7.9864501953125E-05
135.582747657686	0.8001708984375	7.8826904296875E-05
135.682747657434	0.80413818359375	7.87353515625E-05
135.782747657182	0.80322265625	7.8887939453125E-05
135.882747656929	0.79925537109375	7.8765869140625E-05
135.982747656677	0.8038330078125	8.1146240234375E-05
136.082747656424	0.8001708984375	8.0078125E-05
136.182747656172	0.7989501953125	7.8887939453125E-05
136.282747655919	0.80413818359375	7.891845703125E-05
136.382747655667	0.8001708984375	7.8765869140625E-05
136.482747655414	0.7989501953125	8.111572265625E-05
136.582747655162	0.8038330078125	8.0902099609375E-05
136.682747654909	0.79833984375	7.91015625E-05
136.782747654657	0.7989501953125	7.8765869140625E-05
136.882747654404	0.80413818359375	7.879638671875E-05
136.982747654152	0.79864501953125	7.9742431640625E-05
137.082747653899	0.79986572265625	8.1146240234375E-05
137.182747653647	0.80413818359375	7.9803466796875E-05
137.282747653394	0.79986572265625	7.8765869140625E-05
137.382747653142	0.79986572265625	7.8704833984375E-05
137.482747652889	0.804443359375	7.989501953125E-05
137.582747652637	0.7977294921875	8.0963134765625E-05
137.682747652384	0.79864501953125	8.0535888671875E-05
137.782747652132	0.8038330078125	7.891845703125E-05
137.88274765188	0.7965087890625	7.8643798828125E-05
137.982747651627	0.79986572265625	7.9010009765625E-05
138.082747651375	0.8038330078125	8.0780029296875E-05
138.182747651122	0.79864501953125	8.1024169921875E-05
138.28274765087	0.80047607421875	7.952880859375E-05
138.382747650617	0.80413818359375	7.87353515625E-05
138.482747650365	0.79803466796875	7.87353515625E-05
138.582747650112	0.8026123046875	8.087158203125E-05
138.68274764986	0.80322265625	8.11767578125E-05
138.782747649607	0.7989501953125	8.087158203125E-05
138.882747649355	0.8026123046875	7.9620361328125E-05
138.982747649102	0.80352783203125	7.867431640625E-05
139.08274764885	0.7977294921875	7.904052734375E-05
139.182747648597	0.80291748046875	8.1329345703125E-05
139.282747648345	0.8038330078125	8.09326171875E-05
139.382747648092	0.797119140625	8.0474853515625E-05
139.48274764784	0.8013916015625	7.9071044921875E-05
139.582747647587	0.8038330078125	7.8765869140625E-05
139.682747647335	0.7965087890625	8.1207275390625E-05
139.782747647082	0.80047607421875	8.0291748046875E-05
139.88274764683	0.80352783203125	8.10546875E-05
139.982747646578	0.7977294921875	8.0963134765625E-05
140.082747646325	0.8001708984375	7.91015625E-05
140.182747646073	0.80352783203125	7.8704833984375E-05
140.28274764582	0.8026123046875	7.9254150390625E-05
140.382747645568	0.8001708984375	8.1207275390625E-05
140.482747645315	0.80352783203125	8.1268310546875E-05
140.582747645063	0.8038330078125	8.10546875E-05
140.68274764481	0.79864501953125	8.013916015625E-05
140.782747644558	0.80291748046875	7.861328125E-05
140.882747644305	0.8013916015625	7.904052734375E-05
140.982747644053	0.7989501953125	8.0810546875E-05
141.0827476438	0.80322265625	8.050537109375E-05
141.182747643548	0.79833984375	8.1268310546875E-05
141.282747643295	0.79803466796875	8.1024169921875E-05
141.382747643043	0.8026123046875	7.965087890625E-05
141.48274764279	0.80230712890625	7.940673828125E-05
141.582747642538	0.79681396484375	7.99560546875E-05
141.682747642285	0.80322265625	8.0169677734375E-05
141.782747642033	0.80169677734375	8.1298828125E-05
141.882747641781	0.797119140625	8.0902099609375E-05
141.982747641528	0.80291748046875	8.1390380859375E-05
142.082747641276	0.8026123046875	7.8704833984375E-05
142.182747641023	0.797119140625	7.87353515625E-05
142.282747640771	0.80078125	7.916259765625E-05
142.382747640518	0.80322265625	8.1207275390625E-05
142.482747640266	0.79681396484375	8.1695556640625E-05
142.582747640013	0.799560546875	7.867431640625E-05
142.682747639761	0.80352783203125	7.861328125E-05
142.782747639508	0.7965087890625	7.8582763671875E-05
142.882747639256	0.80078125	7.8887939453125E-05
142.982747639003	0.80413818359375	8.1024169921875E-05
143.082747638751	0.79681396484375	7.891845703125E-05
143.182747638498	0.8001708984375	7.9132080078125E-05
143.282747638246	0.8038330078125	7.9803466796875E-05
143.382747637993	0.7977294921875	7.8857421875E-05
143.482747637741	0.79925537109375	7.867431640625E-05
143.582747637488	0.80352783203125	7.87353515625E-05
143.682747637236	0.79559326171875	7.8857421875E-05
143.782747636983	0.797119140625	7.940673828125E-05
143.882747636731	0.80322265625	7.958984375E-05
143.982747636479	0.7965087890625	7.9132080078125E-05
144.082747636226	0.7977294921875	7.879638671875E-05
144.182747635974	0.80322265625	8.099365234375E-05
144.282747635721	0.794677734375	8.06884765625E-05
144.382747635469	0.79742431640625	8.0902099609375E-05
144.482747635216	0.80352783203125	8.0657958984375E-05
144.582747634964	0.7965087890625	7.9345703125E-05
144.682747634711	0.79803466796875	8.160400390625E-05
144.782747634459	0.80352783203125	8.1573486328125E-05
144.882747634206	0.79681396484375	8.0780029296875E-05
144.982747633954	0.7977294921875	8.099365234375E-05
145.082747633701	0.8026123046875	8.0413818359375E-05
145.182747633449	0.79681396484375	7.94677734375E-05
145.282747633196	0.79833984375	7.97119140625E-05
145.382747632944	0.8026123046875	8.0963134765625E-05
145.482747632691	0.797119140625	8.10546875E-05
145.582747632439	0.79864501953125	8.1329345703125E-05
145.682747632186	0.8026123046875	8.0902099609375E-05
145.782747631934	0.7965087890625	7.8643798828125E-05
145.882747631681	0.7989501953125	7.8765869140625E-05
145.982747631429	0.80169677734375	8.1268310546875E-05
146.082747631177	0.80078125	8.1298828125E-05
146.182747630924	0.79864501953125	8.1329345703125E-05
146.282747630672	0.8026123046875	8.111572265625E-05
146.382747630419	0.80169677734375	8.0322265625E-05
146.482747630167	0.79986572265625	8.1329345703125E-05
146.582747629914	0.80230712890625	8.10546875E-05
146.682747629662	0.8026123046875	8.087158203125E-05
146.782747629409	0.79986572265625	8.02001953125E-05
146.882747629157	0.80108642578125	8.135986328125E-05
146.982747628904	0.80322265625	8.1451416015625E-05
147.082747628652	0.7989501953125	7.94677734375E-05
147.182747628399	0.80078125	7.91015625E-05
147.282747628147	0.80322265625	7.891845703125E-05
147.382747627894	0.79803466796875	7.9345703125E-05
147.482747627642	0.799560546875	7.9193115234375E-05
147.582747627389	0.80291748046875	7.879638671875E-05
147.682747627137	0.80169677734375	7.867431640625E-05
147.782747626884	0.79986572265625	7.855224609375E-05
147.882747626632	0.80352783203125	7.8582763671875E-05
147.982747626379	0.80322265625	8.001708984375E-05
148.082747626127	0.799560546875	7.94677734375E-05
148.182747625875	0.80291748046875	7.8826904296875E-05
148.282747625622	0.80352783203125	7.8826904296875E-05
148.38274762537	0.799560546875	7.8643798828125E-05
148.482747625117	0.8013916015625	7.867431640625E-05
148.582747624865	0.8038330078125	7.9437255859375E-05
148.682747624612	0.79833984375	7.8765869140625E-05
148.78274762436	0.8001708984375	7.8704833984375E-05
148.882747624107	0.80352783203125	7.904052734375E-05
148.982747623855	0.79803466796875	8.0474853515625E-05
149.082747623602	0.8001708984375	7.904052734375E-05
149.18274762335	0.80413818359375	8.14208984375E-05
149.282747623097	0.7977294921875	8.02001953125E-05
149.382747622845	0.80047607421875	7.977294921875E-05
149.482747622592	0.804443359375	8.050537109375E-05
149.58274762234	0.797119140625	8.123779296875E-05
149.682747622087	0.80169677734375	7.8521728515625E-05
149.782747621835	0.80291748046875	7.9620361328125E-05
149.882747621582	0.79833984375	8.1298828125E-05
149.98274762133	0.8026123046875	8.1329345703125E-05
150.082747621077	0.79925537109375	8.1268310546875E-05
150.182747620825	0.79864501953125	8.1390380859375E-05
150.282747620573	0.80291748046875	7.87353515625E-05
150.38274762032	0.80047607421875	8.1329345703125E-05
150.482747620068	0.7977294921875	8.135986328125E-05
150.582747619815	0.8038330078125	8.1329345703125E-05
150.682747619563	0.79925537109375	8.1268310546875E-05
150.78274761931	0.7965087890625	8.06884765625E-05
150.882747619058	0.80322265625	7.9437255859375E-05
150.982747618805	0.7952880859375	8.0841064453125E-05
151.082747618553	0.7977294921875	8.1298828125E-05
151.1827476183	0.80322265625	8.0718994140625E-05
151.282747618048	0.7965087890625	8.1024169921875E-05
151.382747617795	0.79803466796875	8.1085205078125E-05
151.482747617543	0.80322265625	7.8643798828125E-05
151.58274761729	0.80108642578125	8.0108642578125E-05
151.682747617038	0.79620361328125	7.9742431640625E-05
151.782747616785	0.8026123046875	7.916259765625E-05
151.882747616533	0.79681396484375	8.111572265625E-05
151.98274761628	0.79681396484375	8.148193359375E-05
152.082747616028	0.80291748046875	7.87353515625E-05
152.182747615776	0.79620361328125	7.879638671875E-05
152.282747615523	0.79833984375	7.9010009765625E-05
152.382747615271	0.80322265625	7.8887939453125E-05
152.482747615018	0.797119140625	7.8857421875E-05
152.582747614766	0.797119140625	7.9864501953125E-05
152.682747614513	0.80322265625	7.879638671875E-05
152.782747614261	0.7965087890625	7.8643798828125E-05
152.882747614008	0.79986572265625	7.867431640625E-05
152.982747613756	0.80291748046875	7.879638671875E-05
153.082747613503	0.7965087890625	7.8643798828125E-05
153.182747613251	0.8013916015625	8.0718994140625E-05
153.282747612998	0.799560546875	7.904052734375E-05
153.382747612746	0.7958984375	7.87353515625E-05
153.482747612493	0.80169677734375	7.879638671875E-05
153.582747612241	0.7989501953125	8.04443359375E-05
153.682747611988	0.79498291015625	8.135986328125E-05
153.782747611736	0.802001953125	8.1085205078125E-05
153.882747611483	0.79559326171875	7.9803466796875E-05
153.982747611231	0.7952880859375	7.9132080078125E-05
154.082747610978	0.80291748046875	7.8765869140625E-05
154.182747610726	0.7958984375	8.1451416015625E-05
154.282747610474	0.79986572265625	8.1207275390625E-05
154.382747610221	0.8013916015625	7.99560546875E-05
154.482747609969	0.79742431640625	7.8948974609375E-05
154.582747609716	0.8001708984375	7.89794921875E-05
154.682747609464	0.802001953125	8.0535888671875E-05
154.782747609211	0.7952880859375	7.9559326171875E-05
154.882747608959	0.80108642578125	8.1146240234375E-05
154.982747608706	0.80169677734375	7.9742431640625E-05
155.082747608454	0.79498291015625	7.9010009765625E-05
155.182747608201	0.80108642578125	7.9010009765625E-05
155.282747607949	0.80169677734375	7.9681396484375E-05
155.382747607696	0.79559326171875	8.0963134765625E-05
155.482747607444	0.80169677734375	8.11767578125E-05
155.582747607191	0.79864501953125	8.0841064453125E-05
155.682747606939	0.79559326171875	7.9681396484375E-05
155.782747606686	0.80169677734375	7.91015625E-05
155.882747606434	0.7977294921875	7.87353515625E-05
155.982747606181	0.79498291015625	8.1085205078125E-05
156.082747605929	0.802001953125	8.10546875E-05
156.182747605676	0.79559326171875	8.0047607421875E-05
156.282747605424	0.7965087890625	7.928466796875E-05
156.382747605172	0.80230712890625	7.87353515625E-05
156.482747604919	0.79559326171875	8.0413818359375E-05
156.582747604667	0.79742431640625	8.0963134765625E-05
156.682747604414	0.8026123046875	8.099365234375E-05
156.782747604162	0.7958984375	8.0413818359375E-05
156.882747603909	0.79925537109375	7.9254150390625E-05
156.982747603657	0.80230712890625	8.056640625E-05
157.082747603404	0.79437255859375	7.958984375E-05
157.182747603152	0.79986572265625	7.9986572265625E-05
157.282747602899	0.80078125	8.0810546875E-05
157.382747602647	0.7940673828125	8.0810546875E-05
157.482747602394	0.80078125	8.050537109375E-05
157.582747602142	0.80078125	7.904052734375E-05
157.682747601889	0.79437255859375	7.916259765625E-05
157.782747601637	0.80078125	8.0230712890625E-05
157.882747601384	0.79986572265625	8.09326171875E-05
157.982747601132	0.79345703125	8.06884765625E-05
158.082747600879	0.8001708984375	8.1085205078125E-05
158.182747600627	0.79620361328125	7.891845703125E-05
158.282747600374	0.79254150390625	7.8887939453125E-05
158.382747600122	0.80108642578125	7.9315185546875E-05
158.48274759987	0.7952880859375	8.0047607421875E-05
158.582747599617	0.7952880859375	7.958984375E-05
158.682747599365	0.80108642578125	7.928466796875E-05
158.782747599112	0.7965087890625	7.9376220703125E-05
158.88274759886	0.794677734375	7.8948974609375E-05
158.982747598607	0.80108642578125	7.9437255859375E-05
159.082747598355	0.79925537109375	8.02001953125E-05
159.182747598102	0.794677734375	7.891845703125E-05
159.28274759785	0.80047607421875	8.0718994140625E-05
159.382747597597	0.8001708984375	8.0352783203125E-05
159.482747597345	0.79559326171875	7.9315185546875E-05
159.582747597092	0.79986572265625	7.904052734375E-05
159.68274759684	0.80078125	7.904052734375E-05
159.782747596587	0.794677734375	8.09326171875E-05
159.882747596335	0.79803466796875	8.099365234375E-05
159.982747596082	0.80078125	8.0902099609375E-05
160.08274759583	0.79437255859375	7.958984375E-05
160.182747595577	0.79986572265625	7.8857421875E-05
160.282747595325	0.7989501953125	8.02001953125E-05
160.382747595072	0.79620361328125	8.0963134765625E-05
160.48274759482	0.80047607421875	8.1085205078125E-05
160.582747594568	0.7977294921875	8.1024169921875E-05
160.682747594315	0.79437255859375	8.001708984375E-05
160.782747594063	0.80108642578125	8.1298828125E-05
160.88274759381	0.79559326171875	8.0810546875E-05
160.982747593558	0.79681396484375	8.06884765625E-05
161.082747593305	0.80108642578125	8.0596923828125E-05
161.182747593053	0.797119140625	8.1146240234375E-05
161.2827475928	0.79833984375	8.013916015625E-05
161.382747592548	0.80078125	8.0810546875E-05
161.482747592295	0.79864501953125	7.99560546875E-05
161.582747592043	0.7989501953125	8.013916015625E-05
161.68274759179	0.80078125	8.10546875E-05
161.782747591538	0.79864501953125	8.11767578125E-05
161.882747591285	0.79986572265625	7.8887939453125E-05
161.982747591033	0.8001708984375	7.9071044921875E-05
162.08274759078	0.8001708984375	8.02001953125E-05
162.182747590528	0.79986572265625	8.050537109375E-05
162.282747590275	0.80169677734375	8.1329345703125E-05
162.382747590023	0.79803466796875	8.1268310546875E-05
162.482747589771	0.80047607421875	7.8521728515625E-05
162.582747589518	0.8013916015625	7.9345703125E-05
162.682747589266	0.79833984375	7.89794921875E-05
162.782747589013	0.79986572265625	7.8948974609375E-05
162.882747588761	0.802001953125	8.0963134765625E-05
162.982747588508	0.7977294921875	7.8948974609375E-05
163.082747588256	0.7989501953125	7.989501953125E-05
163.182747588003	0.80230712890625	7.904052734375E-05
163.282747587751	0.79833984375	7.91015625E-05
163.382747587498	0.7989501953125	8.02001953125E-05
163.482747587246	0.802001953125	8.135986328125E-05
163.582747586993	0.80078125	7.989501953125E-05
163.682747586741	0.79833984375	7.8857421875E-05
163.782747586488	0.8001708984375	7.8643798828125E-05
163.882747586236	0.80169677734375	7.87353515625E-05
163.982747585983	0.79742431640625	7.9833984375E-05
164.082747585731	0.799560546875	8.1146240234375E-05
164.182747585478	0.802001953125	8.1329345703125E-05
164.282747585226	0.79925537109375	7.8704833984375E-05
164.382747584973	0.79925537109375	7.855224609375E-05
164.482747584721	0.802001953125	7.8704833984375E-05
164.582747584469	0.80108642578125	7.989501953125E-05
164.682747584216	0.799560546875	8.0902099609375E-05
164.782747583964	0.80108642578125	7.8582763671875E-05
164.882747583711	0.802001953125	7.8643798828125E-05
164.982747583459	0.7989501953125	7.861328125E-05
165.082747583206	0.80047607421875	7.8643798828125E-05
165.182747582954	0.80230712890625	7.928466796875E-05
165.282747582701	0.7989501953125	7.8460693359375E-05
165.382747582449	0.80047607421875	7.855224609375E-05
165.482747582196	0.80230712890625	7.861328125E-05
165.582747581944	0.79864501953125	7.843017578125E-05
165.682747581691	0.80169677734375	7.861328125E-05
165.782747581439	0.80230712890625	8.0047607421875E-05
165.882747581186	0.7989501953125	7.9132080078125E-05
165.982747580934	0.80047607421875	7.867431640625E-05
166.082747580681	0.8026123046875	7.8521728515625E-05
166.182747580429	0.799560546875	7.855224609375E-05
166.282747580176	0.799560546875	7.9010009765625E-05
166.382747579924	0.8026123046875	7.891845703125E-05
166.482747579671	0.79742431640625	7.867431640625E-05
166.582747579419	0.7989501953125	7.8643798828125E-05
166.682747579167	0.80291748046875	7.861328125E-05
166.782747578914	0.79620361328125	7.84912109375E-05
166.882747578662	0.8001708984375	8.1512451171875E-05
166.982747578409	0.80291748046875	8.1146240234375E-05
167.082747578157	0.79803466796875	7.8521728515625E-05
167.182747577904	0.80169677734375	7.8765869140625E-05
167.282747577652	0.80047607421875	7.916259765625E-05
167.382747577399	0.79864501953125	7.855224609375E-05
167.482747577147	0.8026123046875	8.1695556640625E-05
167.582747576894	0.7989501953125	7.87353515625E-05
167.682747576642	0.80047607421875	7.867431640625E-05
167.782747576389	0.80291748046875	7.952880859375E-05
167.882747576137	0.7989501953125	8.1207275390625E-05
167.982747575884	0.802001953125	7.8582763671875E-05
168.082747575632	0.8001708984375	8.1634521484375E-05
168.182747575379	0.802001953125	7.8643798828125E-05
168.282747575127	0.80047607421875	7.855224609375E-05
168.382747574874	0.80047607421875	7.8582763671875E-05
168.482747574622	0.802001953125	7.8643798828125E-05
168.582747574369	0.79986572265625	8.04443359375E-05
168.682747574117	0.80169677734375	7.879638671875E-05
168.782747573865	0.80291748046875	7.879638671875E-05
168.882747573612	0.8001708984375	7.867431640625E-05
168.98274757336	0.80230712890625	7.8521728515625E-05
169.082747573107	0.80230712890625	7.89794921875E-05
169.182747572855	0.7989501953125	8.074951171875E-05
169.282747572602	0.8026123046875	7.8460693359375E-05
169.38274757235	0.79681396484375	7.8399658203125E-05
169.482747572097	0.80078125	7.8399658203125E-05
169.582747571845	0.8026123046875	7.855224609375E-05
169.682747571592	0.79803466796875	7.8460693359375E-05
169.78274757134	0.802001953125	7.84912109375E-05
169.882747571087	0.7977294921875	7.8582763671875E-05
169.982747570835	0.80169677734375	7.84912109375E-05
170.082747570582	0.8026123046875	7.855224609375E-05
170.18274757033	0.79864501953125	7.8887939453125E-05
170.282747570077	0.80108642578125	7.843017578125E-05
170.382747569825	0.8026123046875	7.8521728515625E-05
170.482747569572	0.8001708984375	7.861328125E-05
170.58274756932	0.80047607421875	7.84912109375E-05
170.682747569067	0.80230712890625	7.8704833984375E-05
170.782747568815	0.80078125	7.916259765625E-05
170.882747568563	0.80078125	7.9010009765625E-05
170.98274756831	0.8026123046875	7.891845703125E-05
171.082747568058	0.79833984375	7.8857421875E-05
171.182747567805	0.802001953125	7.879638671875E-05
171.282747567553	0.80322265625	7.8826904296875E-05
171.3827475673	0.79681396484375	7.9681396484375E-05
171.482747567048	0.8026123046875	7.8826904296875E-05
171.582747566795	0.79833984375	7.8704833984375E-05
171.682747566543	0.79864501953125	7.8887939453125E-05
171.78274756629	0.80230712890625	7.8643798828125E-05
171.882747566038	0.79864501953125	8.1573486328125E-05
171.982747565785	0.797119140625	8.062744140625E-05
172.082747565533	0.80352783203125	7.87353515625E-05
172.18274756528	0.79620361328125	7.8704833984375E-05
172.282747565028	0.8013916015625	7.879638671875E-05
172.382747564775	0.79925537109375	7.867431640625E-05
172.482747564523	0.79803466796875	8.14208984375E-05
172.58274756427	0.8026123046875	7.9620361328125E-05
172.682747564018	0.79833984375	7.8887939453125E-05
172.782747563766	0.80078125	8.026123046875E-05
172.882747563513	0.8013916015625	7.916259765625E-05
172.982747563261	0.7989501953125	7.891845703125E-05
173.082747563008	0.8013916015625	8.038330078125E-05
173.182747562756	0.80078125	7.904052734375E-05
173.282747562503	0.79681396484375	7.965087890625E-05
173.382747562251	0.802001953125	7.9071044921875E-05
173.482747561998	0.79742431640625	7.8704833984375E-05
173.582747561746	0.79681396484375	7.84912109375E-05
173.682747561493	0.80291748046875	7.8948974609375E-05
173.782747561241	0.79559326171875	7.9071044921875E-05
173.882747560988	0.79833984375	7.99560546875E-05
173.982747560736	0.80230712890625	7.952880859375E-05
174.082747560483	0.7989501953125	7.8399658203125E-05
174.182747560231	0.79864501953125	7.84912109375E-05
174.282747559978	0.80291748046875	8.062744140625E-05
174.382747559726	0.79742431640625	8.1329345703125E-05
174.482747559473	0.8001708984375	8.135986328125E-05
174.582747559221	0.80291748046875	8.0810546875E-05
174.682747558968	0.7965087890625	8.0780029296875E-05
174.782747558716	0.80169677734375	8.111572265625E-05
174.882747558464	0.802001953125	8.135986328125E-05
174.982747558211	0.797119140625	8.1268310546875E-05
175.082747557959	0.802001953125	8.1085205078125E-05
175.182747557706	0.7977294921875	7.904052734375E-05
175.282747557454	0.797119140625	8.1146240234375E-05
175.382747557201	0.802001953125	8.154296875E-05
175.482747556949	0.7965087890625	8.1390380859375E-05
175.582747556696	0.79864501953125	8.154296875E-05
175.682747556444	0.80322265625	8.148193359375E-05
175.782747556191	0.7952880859375	8.1512451171875E-05
175.882747555939	0.799560546875	8.135986328125E-05
175.982747555686	0.80230712890625	8.1573486328125E-05
176.082747555434	0.7965087890625	8.1512451171875E-05
176.182747555181	0.80078125	8.1573486328125E-05
176.282747554929	0.80169677734375	7.99560546875E-05
176.382747554676	0.79620361328125	8.0413818359375E-05
176.482747554424	0.8001708984375	8.14208984375E-05
176.582747554171	0.8001708984375	8.0780029296875E-05
176.682747553919	0.79498291015625	8.111572265625E-05
176.782747553666	0.80169677734375	8.148193359375E-05
176.882747553414	0.7989501953125	7.8277587890625E-05
176.982747553162	0.79559326171875	7.8369140625E-05
177.082747552909	0.80169677734375	8.0169677734375E-05
177.182747552657	0.79620361328125	7.904052734375E-05
177.282747552404	0.79315185546875	8.148193359375E-05
177.382747552152	0.802001953125	8.14208984375E-05
177.482747551899	0.7928466796875	7.82470703125E-05
177.582747551647	0.791015625	7.8826904296875E-05
177.682747551394	0.802001953125	7.91015625E-05
177.782747551142	0.787353515625	7.916259765625E-05
177.882747550889	0.79681396484375	8.135986328125E-05
177.982747550637	0.7965087890625	7.9986572265625E-05
178.082747550384	0.78826904296875	8.10546875E-05
178.182747550132	0.79833984375	7.8460693359375E-05
178.282747549879	0.794677734375	7.855224609375E-05
178.382747549627	0.79864501953125	7.861328125E-05
178.482747549374	0.7867431640625	8.0963134765625E-05
178.582747549122	0.79803466796875	7.9132080078125E-05
178.682747548869	0.794677734375	7.8826904296875E-05
178.782747548617	0.79315185546875	7.9254150390625E-05
178.882747548364	0.79620361328125	7.8521728515625E-05
178.982747548112	0.7861328125	7.8704833984375E-05
179.08274754786	0.79803466796875	8.099365234375E-05
179.182747547607	0.7745361328125	7.8369140625E-05
179.282747547355	0.79681396484375	8.0413818359375E-05
179.382747547102	0.7861328125	7.989501953125E-05
179.48274754685	0.79437255859375	7.87353515625E-05
179.582747546597	0.78704833984375	7.8460693359375E-05
179.682747546345	0.78826904296875	8.1512451171875E-05
179.782747546092	0.79193115234375	8.160400390625E-05
179.88274754584	0.78643798828125	8.160400390625E-05
179.982747545587	0.7965087890625	8.1329345703125E-05
180.082747545335	0.77911376953125	8.0810546875E-05
180.182747545082	0.794677734375	7.9071044921875E-05
180.28274754483	0.79559326171875	7.82470703125E-05
180.382747544577	0.78582763671875	7.904052734375E-05
180.482747544325	0.79437255859375	7.91015625E-05
180.582747544072	0.787353515625	7.97119140625E-05
180.68274754382	0.79193115234375	8.0657958984375E-05
180.782747543567	0.79498291015625	8.16650390625E-05
180.882747543315	0.7891845703125	8.154296875E-05
180.982747543062	0.791015625	7.977294921875E-05
181.08274754281	0.79742431640625	7.9498291015625E-05
181.182747542558	0.7861328125	7.8338623046875E-05
181.282747542305	0.79345703125	7.843017578125E-05
181.382747542053	0.7940673828125	7.818603515625E-05
181.4827475418	0.791015625	8.11767578125E-05
181.582747541548	0.79620361328125	8.087158203125E-05
181.682747541295	0.79010009765625	8.1573486328125E-05
181.782747541043	0.79437255859375	8.1573486328125E-05
181.88274754079	0.7965087890625	8.148193359375E-05
181.982747540538	0.787353515625	8.0657958984375E-05
182.082747540285	0.7940673828125	7.8460693359375E-05
182.182747540033	0.7940673828125	7.8338623046875E-05
182.28274753978	0.7843017578125	7.87353515625E-05
182.382747539528	0.7952880859375	7.867431640625E-05
182.482747539275	0.78704833984375	7.830810546875E-05
182.582747539023	0.78826904296875	8.14208984375E-05
182.68274753877	0.79681396484375	8.0902099609375E-05
182.782747538518	0.789794921875	8.026123046875E-05
182.882747538265	0.79254150390625	7.9559326171875E-05
182.982747538013	0.7952880859375	8.099365234375E-05
183.082747537761	0.787353515625	8.1390380859375E-05
183.182747537508	0.79254150390625	7.91015625E-05
183.282747537256	0.791015625	8.0963134765625E-05
183.382747537003	0.78277587890625	8.087158203125E-05
183.482747536751	0.79376220703125	8.0078125E-05
183.582747536498	0.784912109375	7.891845703125E-05
183.682747536246	0.77972412109375	7.91015625E-05
183.782747535993	0.7952880859375	7.8582763671875E-05
183.882747535741	0.78399658203125	7.855224609375E-05
183.982747535488	0.78125	7.84912109375E-05
184.082747535236	0.7940673828125	7.8857421875E-05
184.182747534983	0.782470703125	8.1787109375E-05
184.282747534731	0.78857421875	8.135986328125E-05
184.382747534478	0.792236328125	8.11767578125E-05
184.482747534226	0.7830810546875	8.111572265625E-05
184.582747533973	0.79071044921875	8.14208984375E-05
184.682747533721	0.78643798828125	7.8399658203125E-05
184.782747533468	0.78155517578125	7.855224609375E-05
184.882747533216	0.7940673828125	7.9254150390625E-05
184.982747532963	0.7855224609375	8.0657958984375E-05
185.082747532711	0.7806396484375	7.89794921875E-05
185.182747532459	0.7940673828125	7.9071044921875E-05
185.282747532206	0.78369140625	8.10546875E-05
185.382747531954	0.78643798828125	7.904052734375E-05
185.482747531701	0.792236328125	7.8460693359375E-05
185.582747531449	0.78338623046875	7.8460693359375E-05
185.682747531196	0.789794921875	7.8643798828125E-05
185.782747530944	0.78643798828125	7.91015625E-05
185.882747530691	0.78216552734375	8.0413818359375E-05
185.982747530439	0.79193115234375	8.1451416015625E-05
186.082747530186	0.782470703125	8.09326171875E-05
186.182747529934	0.77545166015625	8.148193359375E-05
186.282747529681	0.79254150390625	8.1573486328125E-05
186.382747529429	0.7806396484375	7.855224609375E-05
186.482747529176	0.78277587890625	8.0108642578125E-05
186.582747528924	0.792236328125	8.0810546875E-05
186.682747528671	0.7806396484375	7.9193115234375E-05
186.782747528419	0.787353515625	7.861328125E-05
186.882747528166	0.78643798828125	8.0963134765625E-05
186.982747527914	0.7769775390625	8.16650390625E-05
187.082747527661	0.78704833984375	7.8521728515625E-05
187.182747527409	0.7830810546875	7.84912109375E-05
187.282747527157	0.77880859375	7.891845703125E-05
187.382747526904	0.791015625	7.9681396484375E-05
187.482747526652	0.78369140625	7.8643798828125E-05
187.582747526399	0.784912109375	8.1298828125E-05
187.682747526147	0.79132080078125	8.135986328125E-05
187.782747525894	0.78277587890625	8.160400390625E-05
187.882747525642	0.780029296875	8.1298828125E-05
187.982747525389	0.791015625	8.1329345703125E-05
188.082747525137	0.77606201171875	8.0047607421875E-05
188.182747524884	0.782470703125	8.062744140625E-05
188.282747524632	0.79010009765625	7.92236328125E-05
188.382747524379	0.7806396484375	7.8765869140625E-05
188.482747524127	0.78155517578125	7.8521728515625E-05
188.582747523874	0.79010009765625	7.8277587890625E-05
188.682747523622	0.77911376953125	7.8521728515625E-05
188.782747523369	0.7794189453125	7.891845703125E-05
188.882747523117	0.789794921875	7.9376220703125E-05
188.982747522864	0.7757568359375	8.0047607421875E-05
189.082747522612	0.77880859375	7.84912109375E-05
189.182747522359	0.7891845703125	8.087158203125E-05
189.282747522107	0.77606201171875	8.123779296875E-05
189.382747521855	0.77911376953125	8.160400390625E-05
189.482747521602	0.7891845703125	8.0841064453125E-05
189.58274752135	0.77484130859375	8.14208984375E-05
189.682747521097	0.78216552734375	8.0291748046875E-05
189.782747520845	0.78948974609375	8.001708984375E-05
189.882747520592	0.7794189453125	7.9132080078125E-05
189.98274752034	0.7818603515625	7.84912109375E-05
190.082747520087	0.78948974609375	7.867431640625E-05
190.182747519835	0.777587890625	7.8857421875E-05
190.282747519582	0.78521728515625	7.843017578125E-05
190.38274751933	0.7843017578125	7.9071044921875E-05
190.482747519077	0.780029296875	7.958984375E-05
190.582747518825	0.78643798828125	8.0230712890625E-05
190.682747518572	0.7818603515625	7.9833984375E-05
190.78274751832	0.78155517578125	8.172607421875E-05
190.882747518067	0.78857421875	8.1634521484375E-05
190.982747517815	0.78155517578125	8.148193359375E-05
191.082747517562	0.78582763671875	8.1146240234375E-05
191.18274751731	0.7879638671875	8.1268310546875E-05
191.282747517057	0.78125	8.154296875E-05
191.382747516805	0.78582763671875	7.830810546875E-05
191.482747516553	0.782470703125	7.89794921875E-05
191.5827475163	0.7769775390625	7.867431640625E-05
191.682747516048	0.78582763671875	7.87353515625E-05
191.782747515795	0.7806396484375	7.843017578125E-05
191.882747515543	0.77545166015625	8.16650390625E-05
191.98274751529	0.78643798828125	8.148193359375E-05
192.082747515038	0.7794189453125	8.1024169921875E-05
192.182747514785	0.7757568359375	8.1298828125E-05
192.282747514533	0.7861328125	8.1451416015625E-05
192.38274751428	0.7794189453125	8.11767578125E-05
192.482747514028	0.77667236328125	7.84912109375E-05
192.582747513775	0.7861328125	8.0078125E-05
192.682747513523	0.7781982421875	7.91015625E-05
192.78274751327	0.775146484375	7.8582763671875E-05
192.882747513018	0.78582763671875	7.9132080078125E-05
192.982747512765	0.77545166015625	8.1207275390625E-05
193.082747512513	0.777587890625	8.04443359375E-05
193.18274751226	0.7855224609375	7.916259765625E-05
193.282747512008	0.78369140625	8.038330078125E-05
193.382747511756	0.77392578125	8.026123046875E-05
193.482747511503	0.7855224609375	7.9742431640625E-05
193.582747511251	0.7757568359375	7.9376220703125E-05
193.682747510998	0.7745361328125	8.1268310546875E-05
193.782747510746	0.78521728515625	8.0963134765625E-05
193.882747510493	0.77362060546875	7.989501953125E-05
193.982747510241	0.77392578125	8.099365234375E-05
194.082747509988	0.7855224609375	7.9986572265625E-05
194.182747509736	0.76995849609375	8.099365234375E-05
194.282747509483	0.77239990234375	7.8399658203125E-05
194.382747509231	0.784912109375	7.91015625E-05
194.482747508978	0.77117919921875	7.8399658203125E-05
194.582747508726	0.77850341796875	7.830810546875E-05
194.682747508473	0.78155517578125	7.9315185546875E-05
194.782747508221	0.772705078125	8.135986328125E-05
194.882747507968	0.78277587890625	8.1634521484375E-05
194.982747507716	0.777587890625	8.160400390625E-05
195.082747507463	0.7745361328125	8.16650390625E-05
195.182747507211	0.78338623046875	7.977294921875E-05
195.282747506958	0.7763671875	8.148193359375E-05
195.382747506706	0.78094482421875	7.843017578125E-05
195.482747506454	0.78094482421875	7.8399658203125E-05
195.582747506201	0.77667236328125	7.861328125E-05
195.682747505949	0.7806396484375	7.9071044921875E-05
195.782747505696	0.77545166015625	7.855224609375E-05
195.882747505444	0.77178955078125	8.099365234375E-05
195.982747505191	0.78216552734375	8.135986328125E-05
196.082747504939	0.7666015625	8.1573486328125E-05
196.182747504686	0.7684326171875	8.0474853515625E-05
196.282747504434	0.78216552734375	7.855224609375E-05
196.382747504181	0.7672119140625	8.172607421875E-05
196.482747503929	0.772705078125	7.8948974609375E-05
196.582747503676	0.7818603515625	7.8399658203125E-05
196.682747503424	0.77728271484375	7.8460693359375E-05
196.782747503171	0.7763671875	7.904052734375E-05
196.882747502919	0.78033447265625	7.94677734375E-05
196.982747502666	0.78033447265625	8.148193359375E-05
197.082747502414	0.77667236328125	8.160400390625E-05
197.182747502161	0.780029296875	8.123779296875E-05
197.282747501909	0.78125	8.10546875E-05
197.382747501656	0.78125	8.1024169921875E-05
197.482747501404	0.7781982421875	7.8125E-05
197.582747501152	0.782470703125	7.8765869140625E-05
197.682747500899	0.77850341796875	7.82470703125E-05
197.782747500647	0.77423095703125	7.8369140625E-05
197.882747500394	0.78369140625	7.87353515625E-05
197.982747500142	0.77667236328125	8.1817626953125E-05
198.082747499889	0.78125	8.1817626953125E-05
198.182747499637	0.78338623046875	8.16650390625E-05
198.282747499384	0.77606201171875	8.1817626953125E-05
198.382747499132	0.7818603515625	8.16650390625E-05
198.482747498879	0.77850341796875	8.154296875E-05
198.582747498627	0.7769775390625	7.904052734375E-05
198.682747498374	0.78369140625	7.82470703125E-05
198.782747498122	0.7757568359375	7.8277587890625E-05
198.882747497869	0.7818603515625	7.84912109375E-05
198.982747497617	0.771484375	7.82470703125E-05
199.082747497364	0.78216552734375	7.916259765625E-05
199.182747497112	0.75164794921875	7.8094482421875E-05
199.282747496859	0.78033447265625	8.148193359375E-05
199.382747496607	0.765380859375	8.14208984375E-05
199.482747496354	0.77545166015625	8.1756591796875E-05
199.582747496102	0.77972412109375	8.1329345703125E-05
199.68274749585	0.76141357421875	8.1787109375E-05
199.782747495597	0.77911376953125	7.830810546875E-05
199.882747495345	0.772705078125	7.8277587890625E-05
199.982747495092	0.772705078125	7.830810546875E-05
200.08274749484	0.7794189453125	7.843017578125E-05
200.182747494587	0.77301025390625	7.89794921875E-05
200.282747494335	0.7720947265625	7.8704833984375E-05
200.382747494082	0.78155517578125	8.160400390625E-05
200.48274749383	0.77178955078125	8.1756591796875E-05
200.582747493577	0.77484130859375	8.154296875E-05
200.682747493325	0.78094482421875	8.1634521484375E-05
200.782747493072	0.76904296875	7.879638671875E-05
200.88274749282	0.7769775390625	7.8033447265625E-05
200.982747492567	0.7781982421875	7.830810546875E-05
201.082747492315	0.7684326171875	7.8338623046875E-05
201.182747492062	0.7781982421875	7.891845703125E-05
201.28274749181	0.77178955078125	8.0535888671875E-05
201.382747491557	0.7745361328125	8.1390380859375E-05
201.482747491305	0.77850341796875	8.148193359375E-05
201.582747491052	0.76751708984375	8.1634521484375E-05
201.6827474908	0.777587890625	8.1451416015625E-05
201.782747490548	0.77301025390625	7.9559326171875E-05
201.882747490295	0.7763671875	7.8125E-05
201.982747490043	0.7745361328125	7.8460693359375E-05
202.08274748979	0.77362060546875	7.879638671875E-05
202.182747489538	0.7769775390625	7.91015625E-05
202.282747489285	0.77667236328125	8.0841064453125E-05
202.382747489033	0.770263671875	8.1085205078125E-05
202.48274748878	0.77850341796875	8.16650390625E-05
202.582747488528	0.7745361328125	8.0963134765625E-05
202.682747488275	0.76873779296875	8.0047607421875E-05
202.782747488023	0.780029296875	7.8887939453125E-05
202.88274748777	0.770263671875	7.8369140625E-05
202.982747487518	0.7666015625	7.830810546875E-05
203.082747487265	0.77880859375	7.8643798828125E-05
203.182747487013	0.76873779296875	8.1024169921875E-05
203.28274748676	0.77362060546875	8.160400390625E-05
203.382747486508	0.7794189453125	8.148193359375E-05
203.482747486255	0.76995849609375	8.135986328125E-05
203.582747486003	0.7769775390625	8.1512451171875E-05
203.682747485751	0.77880859375	7.843017578125E-05
203.782747485498	0.771484375	7.8582763671875E-05
203.882747485246	0.77789306640625	7.8460693359375E-05
203.982747484993	0.77880859375	7.94677734375E-05
204.082747484741	0.76934814453125	8.04443359375E-05
204.182747484488	0.77850341796875	7.8948974609375E-05
204.282747484236	0.77667236328125	8.1146240234375E-05
204.382747483983	0.77117919921875	8.09326171875E-05
204.482747483731	0.7781982421875	7.9132080078125E-05
204.582747483478	0.77850341796875	7.843017578125E-05
204.682747483226	0.77056884765625	8.1756591796875E-05
204.782747482973	0.77850341796875	8.0108642578125E-05
204.882747482721	0.777587890625	8.0474853515625E-05
204.982747482468	0.77117919921875	8.154296875E-05
205.082747482216	0.7781982421875	8.1512451171875E-05
205.182747481963	0.77789306640625	8.1573486328125E-05
205.282747481711	0.77056884765625	7.8399658203125E-05
205.382747481458	0.77850341796875	7.8338623046875E-05
205.482747481206	0.77423095703125	7.8582763671875E-05
205.582747480953	0.76873779296875	7.9559326171875E-05
205.682747480701	0.77850341796875	7.99560546875E-05
205.782747480449	0.76995849609375	8.14208984375E-05
205.882747480196	0.7684326171875	8.197021484375E-05
205.982747479944	0.7781982421875	8.056640625E-05
206.082747479691	0.76995849609375	7.8460693359375E-05
206.182747479439	0.77056884765625	7.830810546875E-05
206.282747479186	0.77880859375	7.8460693359375E-05
206.382747478934	0.77117919921875	8.135986328125E-05
206.482747478681	0.770263671875	8.1573486328125E-05
206.582747478429	0.77880859375	8.1207275390625E-05
206.682747478176	0.767822265625	8.0963134765625E-05
206.782747477924	0.770263671875	7.9925537109375E-05
206.882747477671	0.777587890625	7.8369140625E-05
206.982747477419	0.772705078125	7.843017578125E-05
207.082747477166	0.7720947265625	7.9620361328125E-05
207.182747476914	0.77880859375	8.135986328125E-05
207.282747476661	0.772705078125	8.1451416015625E-05
207.382747476409	0.771484375	8.160400390625E-05
207.482747476156	0.777587890625	8.087158203125E-05
207.582747475904	0.76904296875	7.84912109375E-05
207.682747475651	0.77178955078125	7.9071044921875E-05
207.782747475399	0.77850341796875	7.9803466796875E-05
207.882747475147	0.77117919921875	8.0169677734375E-05
207.982747474894	0.76934814453125	8.1756591796875E-05
208.082747474642	0.77850341796875	8.1695556640625E-05
208.182747474389	0.76751708984375	7.8521728515625E-05
208.282747474137	0.76873779296875	7.879638671875E-05
208.382747473884	0.77789306640625	7.9345703125E-05
208.482747473632	0.76629638671875	7.89794921875E-05
208.582747473379	0.767822265625	8.0291748046875E-05
208.682747473127	0.777587890625	7.91015625E-05
208.782747472874	0.7647705078125	7.8369140625E-05
208.882747472622	0.77484130859375	7.879638671875E-05
208.982747472369	0.77484130859375	7.9010009765625E-05
209.082747472117	0.76751708984375	7.965087890625E-05
209.182747471864	0.7763671875	7.9071044921875E-05
209.282747471612	0.772705078125	7.8582763671875E-05
209.382747471359	0.7733154296875	7.82470703125E-05
209.482747471107	0.7769775390625	7.9010009765625E-05
209.582747470854	0.771484375	7.89794921875E-05
209.682747470602	0.77362060546875	7.8155517578125E-05
209.782747470349	0.7757568359375	7.8948974609375E-05
209.882747470097	0.76904296875	7.8369140625E-05
209.982747469845	0.7745361328125	7.8765869140625E-05
210.082747469592	0.772705078125	7.91015625E-05
210.18274746934	0.76385498046875	8.0291748046875E-05
210.282747469087	0.7763671875	7.8582763671875E-05
210.382747468835	0.7696533203125	7.843017578125E-05
210.482747468582	0.76629638671875	7.861328125E-05
210.58274746833	0.77728271484375	7.891845703125E-05
210.682747468077	0.76934814453125	7.8948974609375E-05
210.782747467825	0.7684326171875	7.818603515625E-05
210.882747467572	0.77667236328125	7.8826904296875E-05
210.98274746732	0.76812744140625	7.8399658203125E-05
211.082747467067	0.77056884765625	7.9254150390625E-05
211.182747466815	0.77667236328125	7.904052734375E-05
211.282747466562	0.76873779296875	8.0718994140625E-05
211.38274746631	0.7696533203125	7.8369140625E-05
211.482747466057	0.77667236328125	7.8460693359375E-05
211.582747465805	0.76629638671875	7.87353515625E-05
211.682747465552	0.77056884765625	7.9437255859375E-05
211.7827474653	0.77728271484375	8.056640625E-05
211.882747465047	0.76751708984375	7.8277587890625E-05
211.982747464795	0.7745361328125	7.8704833984375E-05
212.082747464543	0.7733154296875	7.8582763671875E-05
212.18274746429	0.76934814453125	7.928466796875E-05
212.282747464038	0.77484130859375	7.891845703125E-05
212.382747463785	0.7720947265625	7.952880859375E-05
212.482747463533	0.76690673828125	7.8460693359375E-05
212.58274746328	0.7763671875	7.84912109375E-05
212.682747463028	0.76934814453125	7.9010009765625E-05
212.782747462775	0.77056884765625	8.0230712890625E-05
212.882747462523	0.7769775390625	7.9254150390625E-05
212.98274746227	0.7696533203125	7.928466796875E-05
213.082747462018	0.772705078125	7.8582763671875E-05
213.182747461765	0.775146484375	7.9071044921875E-05
213.282747461513	0.76751708984375	7.92236328125E-05
213.38274746126	0.775146484375	8.04443359375E-05
213.482747461008	0.77239990234375	7.9925537109375E-05
213.582747460755	0.7696533203125	7.8460693359375E-05
213.682747460503	0.77667236328125	7.8765869140625E-05
213.78274746025	0.7708740234375	8.0596923828125E-05
213.882747459998	0.77178955078125	7.9437255859375E-05
213.982747459746	0.7769775390625	7.9315185546875E-05
214.082747459493	0.77056884765625	8.1207275390625E-05
214.182747459241	0.77484130859375	7.9193115234375E-05
214.282747458988	0.77362060546875	7.891845703125E-05
214.382747458736	0.767822265625	8.0322265625E-05
214.482747458483	0.77606201171875	8.0047607421875E-05
214.582747458231	0.770263671875	8.0169677734375E-05
214.682747457978	0.76934814453125	7.9833984375E-05
214.782747457726	0.7763671875	7.8460693359375E-05
214.882747457473	0.7696533203125	7.9376220703125E-05
214.982747457221	0.775146484375	7.916259765625E-05
215.082747456968	0.7720947265625	7.8765869140625E-05
215.182747456716	0.771484375	8.1085205078125E-05
215.282747456463	0.7763671875	8.02001953125E-05
215.382747456211	0.77239990234375	7.84912109375E-05
215.482747455958	0.77484130859375	7.879638671875E-05
215.582747455706	0.7769775390625	7.8643798828125E-05
215.682747455453	0.771484375	7.879638671875E-05
215.782747455201	0.7745361328125	8.1512451171875E-05
215.882747454948	0.7745361328125	7.8338623046875E-05
215.982747454696	0.767822265625	7.8277587890625E-05
216.082747454444	0.77606201171875	7.8521728515625E-05
216.182747454191	0.7733154296875	7.891845703125E-05
216.282747453939	0.7672119140625	8.197021484375E-05
216.382747453686	0.77606201171875	8.172607421875E-05
216.482747453434	0.76751708984375	7.8399658203125E-05
216.582747453181	0.76568603515625	7.8704833984375E-05
216.682747452929	0.77545166015625	7.8826904296875E-05
216.782747452676	0.767822265625	7.84912109375E-05
216.882747452424	0.770263671875	8.197021484375E-05
216.982747452171	0.7763671875	7.830810546875E-05
217.082747451919	0.7696533203125	7.8369140625E-05
217.182747451666	0.7733154296875	7.8857421875E-05
217.282747451414	0.775146484375	7.8582763671875E-05
217.382747451161	0.76812744140625	8.1817626953125E-05
217.482747450909	0.77484130859375	8.19091796875E-05
217.582747450656	0.7720947265625	7.8369140625E-05
217.682747450404	0.7684326171875	7.855224609375E-05
217.782747450151	0.77545166015625	7.8521728515625E-05
217.882747449899	0.770263671875	7.861328125E-05
217.982747449646	0.76904296875	8.0352783203125E-05
218.082747449394	0.7763671875	7.8704833984375E-05
218.182747449142	0.76934814453125	7.843017578125E-05
218.282747448889	0.7733154296875	7.8399658203125E-05
218.382747448637	0.7757568359375	7.8369140625E-05
218.482747448384	0.76934814453125	7.928466796875E-05
218.582747448132	0.775146484375	7.92236328125E-05
218.682747447879	0.77117919921875	7.861328125E-05
218.782747447627	0.76812744140625	7.855224609375E-05
218.882747447374	0.77606201171875	7.861328125E-05
218.982747447122	0.76873779296875	7.8369140625E-05
219.082747446869	0.77362060546875	7.8094482421875E-05
219.182747446617	0.77392578125	7.9498291015625E-05
219.282747446364	0.76812744140625	7.82470703125E-05
219.382747446112	0.775146484375	7.8338623046875E-05
219.482747445859	0.77056884765625	7.8216552734375E-05
219.582747445607	0.767822265625	7.818603515625E-05
219.682747445354	0.77667236328125	7.861328125E-05
219.782747445102	0.76904296875	8.062744140625E-05
219.882747444849	0.772705078125	7.8948974609375E-05
219.982747444597	0.77545166015625	7.867431640625E-05
220.082747444344	0.7684326171875	7.9376220703125E-05
220.182747444092	0.7733154296875	8.1298828125E-05
220.28274744384	0.77056884765625	8.1756591796875E-05
220.382747443587	0.76324462890625	8.111572265625E-05
220.482747443335	0.7745361328125	7.91015625E-05
220.582747443082	0.76690673828125	7.9681396484375E-05
220.68274744283	0.7672119140625	7.9864501953125E-05
220.782747442577	0.77545166015625	8.1939697265625E-05
220.882747442325	0.76812744140625	8.1512451171875E-05
220.982747442072	0.76446533203125	8.148193359375E-05
221.08274744182	0.775146484375	8.135986328125E-05
221.182747441567	0.76263427734375	8.1451416015625E-05
