Time (s)	WE(1).Potential (V)
9.09588197703511	0.73760986328125
9.19588197678263	0.73760986328125
9.29588197653015	0.7379150390625
9.39588197627768	0.73822021484375
9.4958819760252	0.73822021484375
9.59588197577273	0.738525390625
9.69588197552025	0.73883056640625
9.79588197526778	0.73883056640625
9.8958819750153	0.7391357421875
9.99588197476282	0.7391357421875
10.0958819745103	0.73944091796875
10.1958819742579	0.73974609375
10.2958819740054	0.73974609375
10.3958819737529	0.74005126953125
10.4958819735004	0.7403564453125
10.595881973248	0.7403564453125
10.6958819729955	0.74066162109375
10.795881972743	0.74066162109375
10.8958819724905	0.740966796875
10.9958819722381	0.740966796875
11.0958819719856	0.74127197265625
11.1958819717331	0.7415771484375
11.2958819714806	0.7415771484375
11.3958819712282	0.74188232421875
11.4958819709757	0.74188232421875
11.5958819707232	0.7421875
11.6958819704707	0.74249267578125
11.7958819702183	0.74249267578125
11.8958819699658	0.7427978515625
11.9958819697133	0.7427978515625
12.0958819694608	0.74310302734375
12.1958819692084	0.74310302734375
12.2958819689559	0.743408203125
12.3958819687034	0.74371337890625
12.4958819684509	0.74371337890625
12.5958819681985	0.7440185546875
12.695881967946	0.7440185546875
12.7958819676935	0.74432373046875
12.895881967441	0.74432373046875
12.9958819671886	0.74462890625
13.0958819669361	0.74462890625
13.1958819666836	0.74493408203125
13.2958819664311	0.74493408203125
13.3958819661786	0.7452392578125
13.4958819659262	0.7452392578125
13.5958819656737	0.74554443359375
13.6958819654212	0.74554443359375
13.7958819651687	0.745849609375
13.8958819649163	0.745849609375
13.9958819646638	0.74615478515625
14.0958819644113	0.74615478515625
14.1958819641588	0.7464599609375
14.2958819639064	0.7464599609375
14.3958819636539	0.74676513671875
14.4958819634014	0.74676513671875
14.5958819631489	0.7470703125
14.6958819628965	0.7470703125
14.795881962644	0.74737548828125
14.8958819623915	0.74737548828125
14.995881962139	0.7476806640625
15.0958819618866	0.7476806640625
15.1958819616341	0.74798583984375
15.2958819613816	0.74798583984375
15.3958819611291	0.748291015625
15.4958819608767	0.748291015625
15.5958819606242	0.748291015625
15.6958819603717	0.74859619140625
15.7958819601192	0.74859619140625
15.8958819598668	0.7489013671875
15.9958819596143	0.7489013671875
16.0958819593618	0.74920654296875
16.1958819591093	0.74920654296875
16.2958819588569	0.74951171875
16.3958819586044	0.74951171875
16.4958819583519	0.74981689453125
16.5958819580994	0.74981689453125
16.695881957847	0.74981689453125
16.7958819575945	0.7501220703125
16.895881957342	0.7501220703125
16.9958819570895	0.75042724609375
17.095881956837	0.75042724609375
17.1958819565846	0.750732421875
17.2958819563321	0.750732421875
17.3958819560796	0.750732421875
17.4958819558271	0.75103759765625
17.5958819555747	0.75103759765625
17.6958819553222	0.7513427734375
17.7958819550697	0.7513427734375
17.8958819548172	0.75164794921875
17.9958819545648	0.75164794921875
18.0958819543123	0.75164794921875
18.1958819540598	0.751953125
18.2958819538073	0.751953125
18.3958819535549	0.75225830078125
18.4958819533024	0.75225830078125
18.5958819530499	0.7525634765625
18.6958819527974	0.7525634765625
18.795881952545	0.7525634765625
18.8958819522925	0.75286865234375
18.99588195204	0.75286865234375
19.0958819517875	0.753173828125
19.1958819515351	0.753173828125
19.2958819512826	0.753173828125
19.3958819510301	0.75347900390625
19.4958819507776	0.75347900390625
19.5958819505252	0.7537841796875
19.6958819502727	0.7537841796875
19.7958819500202	0.7537841796875
19.8958819497677	0.75408935546875
19.9958819495153	0.75408935546875
20.0958819492628	0.75408935546875
20.1958819490103	0.75439453125
20.2958819487578	0.75439453125
20.3958819485053	0.75469970703125
20.4958819482529	0.75469970703125
20.5958819480004	0.75469970703125
20.6958819477479	0.7550048828125
20.7958819474954	0.7550048828125
20.895881947243	0.75531005859375
20.9958819469905	0.75531005859375
21.095881946738	0.75531005859375
21.1958819464855	0.755615234375
21.2958819462331	0.755615234375
21.3958819459806	0.755615234375
21.4958819457281	0.75592041015625
21.5958819454756	0.75592041015625
21.6958819452232	0.75592041015625
21.7958819449707	0.7562255859375
21.8958819447182	0.7562255859375
21.9958819444657	0.75653076171875
22.0958819442133	0.75653076171875
22.1958819439608	0.75653076171875
22.2958819437083	0.7568359375
22.3958819434558	0.7568359375
22.4958819432034	0.7568359375
22.5958819429509	0.75714111328125
22.6958819426984	0.75714111328125
22.7958819424459	0.7574462890625
22.8958819421935	0.7574462890625
22.995881941941	0.7574462890625
23.0958819416885	0.75775146484375
23.195881941436	0.75775146484375
23.2958819411836	0.75775146484375
23.3958819409311	0.758056640625
23.4958819406786	0.758056640625
23.5958819404261	0.758056640625
23.6958819401736	0.75836181640625
23.7958819399212	0.75836181640625
23.8958819396687	0.75836181640625
23.9958819394162	0.7586669921875
24.0958819391637	0.7586669921875
24.1958819389113	0.7586669921875
24.2958819386588	0.75897216796875
24.3958819384063	0.75897216796875
24.4958819381538	0.75897216796875
24.5958819379014	0.75927734375
24.6958819376489	0.75927734375
24.7958819373964	0.75927734375
24.8958819371439	0.75958251953125
24.9958819368915	0.75958251953125
25.095881936639	0.75958251953125
25.1958819363865	0.7598876953125
25.295881936134	0.7598876953125
25.3958819358816	0.7598876953125
25.4958819356291	0.76019287109375
25.5958819353766	0.76019287109375
25.6958819351241	0.76019287109375
25.7958819348717	0.76019287109375
25.8958819346192	0.760498046875
25.9958819343667	0.760498046875
26.0958819341142	0.76080322265625
26.1958819338618	0.76080322265625
26.2958819336093	0.76080322265625
26.3958819333568	0.76080322265625
26.4958819331043	0.7611083984375
26.5958819328519	0.7611083984375
26.6958819325994	0.7611083984375
26.7958819323469	0.76141357421875
26.8958819320944	0.76141357421875
26.995881931842	0.76141357421875
27.0958819315895	0.76171875
27.195881931337	0.76171875
27.2958819310845	0.76171875
27.395881930832	0.76202392578125
27.4958819305796	0.76202392578125
27.5958819303271	0.76202392578125
27.6958819300746	0.7623291015625
27.7958819298221	0.7623291015625
27.8958819295697	0.7623291015625
27.9958819293172	0.76263427734375
28.0958819290647	0.76263427734375
28.1958819288122	0.76263427734375
28.2958819285598	0.76263427734375
28.3958819283073	0.762939453125
28.4958819280548	0.762939453125
28.5958819278023	0.762939453125
28.6958819275499	0.76324462890625
28.7958819272974	0.76324462890625
28.8958819270449	0.76324462890625
28.9958819267924	0.76324462890625
29.09588192654	0.7635498046875
29.1958819262875	0.7635498046875
29.295881926035	0.7635498046875
29.3958819257825	0.76385498046875
29.4958819255301	0.76385498046875
29.5958819252776	0.76385498046875
29.6958819250251	0.76385498046875
29.7958819247726	0.76416015625
29.8958819245202	0.76416015625
29.9958819242677	0.76416015625
30.0958819240152	0.76446533203125
30.1958819237627	0.76446533203125
30.2958819235103	0.76446533203125
30.3958819232578	0.7647705078125
30.4958819230053	0.7647705078125
30.5958819227528	0.7647705078125
30.6958819225003	0.7647705078125
30.7958819222479	0.76507568359375
30.8958819219954	0.76507568359375
30.9958819217429	0.76507568359375
31.0958819214904	0.76507568359375
31.195881921238	0.765380859375
31.2958819209855	0.765380859375
31.395881920733	0.765380859375
31.4958819204805	0.76568603515625
31.5958819202281	0.76568603515625
31.6958819199756	0.76568603515625
31.7958819197231	0.76568603515625
31.8958819194706	0.7659912109375
31.9958819192182	0.7659912109375
32.0958819189657	0.7659912109375
32.1958819187132	0.76629638671875
32.2958819184607	0.76629638671875
32.3958819182083	0.76629638671875
32.4958819179558	0.76629638671875
32.5958819177033	0.7666015625
32.6958819174508	0.7666015625
32.7958819171984	0.7666015625
32.8958819169459	0.7666015625
32.9958819166934	0.76690673828125
33.0958819164409	0.76690673828125
33.1958819161885	0.76690673828125
33.295881915936	0.7672119140625
33.3958819156835	0.7672119140625
33.495881915431	0.7672119140625
33.5958819151786	0.7672119140625
33.6958819149261	0.76751708984375
33.7958819146736	0.76751708984375
33.8958819144211	0.76751708984375
33.9958819141686	0.76751708984375
34.0958819139162	0.767822265625
34.1958819136637	0.767822265625
34.2958819134112	0.767822265625
34.3958819131587	0.767822265625
34.4958819129063	0.76812744140625
34.5958819126538	0.76812744140625
34.6958819124013	0.76812744140625
34.7958819121488	0.76812744140625
34.8958819118964	0.7684326171875
34.9958819116439	0.7684326171875
35.0958819113914	0.7684326171875
35.1958819111389	0.76873779296875
35.2958819108865	0.76873779296875
35.395881910634	0.76873779296875
35.4958819103815	0.76873779296875
35.595881910129	0.76904296875
35.6958819098766	0.76904296875
35.7958819096241	0.76904296875
35.8958819093716	0.76904296875
35.9958819091191	0.76904296875
36.0958819088667	0.76934814453125
36.1958819086142	0.76934814453125
36.2958819083617	0.76934814453125
36.3958819081092	0.7696533203125
36.4958819078568	0.7696533203125
36.5958819076043	0.7696533203125
36.6958819073518	0.7696533203125
36.7958819070993	0.7696533203125
36.8958819068469	0.76995849609375
36.9958819065944	0.76995849609375
37.0958819063419	0.76995849609375
37.1958819060894	0.76995849609375
37.295881905837	0.770263671875
37.3958819055845	0.770263671875
37.495881905332	0.770263671875
37.5958819050795	0.770263671875
37.695881904827	0.77056884765625
37.7958819045746	0.77056884765625
37.8958819043221	0.77056884765625
37.9958819040696	0.77056884765625
38.0958819038171	0.7708740234375
38.1958819035647	0.7708740234375
38.2958819033122	0.7708740234375
38.3958819030597	0.7708740234375
38.4958819028072	0.77117919921875
38.5958819025548	0.77117919921875
38.6958819023023	0.77117919921875
38.7958819020498	0.77117919921875
38.8958819017973	0.771484375
38.9958819015449	0.771484375
39.0958819012924	0.771484375
39.1958819010399	0.771484375
39.2958819007874	0.77178955078125
39.395881900535	0.77178955078125
39.4958819002825	0.77178955078125
39.59588190003	0.77178955078125
39.6958818997775	0.77178955078125
39.7958818995251	0.7720947265625
39.8958818992726	0.7720947265625
39.9958818990201	0.7720947265625
40.0958818987676	0.7720947265625
40.1958818985152	0.77239990234375
40.2958818982627	0.77239990234375
40.3958818980102	0.77239990234375
40.4958818977577	0.77239990234375
40.5958818975053	0.772705078125
40.6958818972528	0.772705078125
40.7958818970003	0.772705078125
40.8958818967478	0.772705078125
40.9958818964953	0.77301025390625
41.0958818962429	0.77301025390625
41.1958818959904	0.77301025390625
41.2958818957379	0.77301025390625
41.3958818954854	0.77301025390625
41.495881895233	0.7733154296875
41.5958818949805	0.7733154296875
41.695881894728	0.7733154296875
41.7958818944755	0.7733154296875
41.8958818942231	0.77362060546875
41.9958818939706	0.77362060546875
42.0958818937181	0.77362060546875
42.1958818934656	0.77362060546875
42.2958818932132	0.77362060546875
42.3958818929607	0.77392578125
42.4958818927082	0.77392578125
42.5958818924557	0.77392578125
42.6958818922033	0.77392578125
42.7958818919508	0.77423095703125
42.8958818916983	0.77423095703125
42.9958818914458	0.77423095703125
43.0958818911934	0.77423095703125
43.1958818909409	0.77423095703125
43.2958818906884	0.7745361328125
43.3958818904359	0.7745361328125
43.4958818901835	0.7745361328125
43.595881889931	0.7745361328125
43.6958818896785	0.77484130859375
43.795881889426	0.77484130859375
43.8958818891736	0.77484130859375
43.9958818889211	0.77484130859375
44.0958818886686	0.77484130859375
44.1958818884161	0.775146484375
44.2958818881636	0.775146484375
44.3958818879112	0.775146484375
44.4958818876587	0.775146484375
44.5958818874062	0.77545166015625
44.6958818871537	0.77545166015625
44.7958818869013	0.77545166015625
44.8958818866488	0.77545166015625
44.9958818863963	0.77545166015625
45.0958818861438	0.7757568359375
45.1958818858914	0.7757568359375
45.2958818856389	0.7757568359375
45.3958818853864	0.7757568359375
45.4958818851339	0.7757568359375
45.5958818848815	0.77606201171875
45.695881884629	0.77606201171875
45.7958818843765	0.77606201171875
45.895881884124	0.77606201171875
45.9958818838716	0.77606201171875
46.0958818836191	0.7763671875
46.1958818833666	0.7763671875
46.2958818831141	0.7763671875
46.3958818828617	0.7763671875
46.4958818826092	0.7763671875
46.5958818823567	0.77667236328125
46.6958818821042	0.77667236328125
46.7958818818518	0.77667236328125
46.8958818815993	0.77667236328125
46.9958818813468	0.7769775390625
47.0958818810943	0.7769775390625
47.1958818808419	0.7769775390625
47.2958818805894	0.7769775390625
47.3958818803369	0.7769775390625
47.4958818800844	0.77728271484375
47.595881879832	0.77728271484375
47.6958818795795	0.77728271484375
47.795881879327	0.77728271484375
47.8958818790745	0.77728271484375
47.995881878822	0.777587890625
48.0958818785696	0.777587890625
48.1958818783171	0.777587890625
48.2958818780646	0.777587890625
48.3958818778121	0.777587890625
48.4958818775597	0.77789306640625
48.5958818773072	0.77789306640625
48.6958818770547	0.77789306640625
48.7958818768022	0.77789306640625
48.8958818765498	0.77789306640625
48.9958818762973	0.7781982421875
49.0958818760448	0.7781982421875
49.1958818757923	0.7781982421875
49.2958818755399	0.7781982421875
49.3958818752874	0.7781982421875
49.4958818750349	0.77850341796875
49.5958818747824	0.77850341796875
49.69588187453	0.77850341796875
49.7958818742775	0.77850341796875
49.895881874025	0.77850341796875
49.9958818737725	0.77880859375
50.0958818735201	0.77880859375
50.1958818732676	0.77880859375
50.2958818730151	0.77880859375
50.3958818727626	0.77880859375
50.4958818725102	0.77911376953125
50.5958818722577	0.77911376953125
50.6958818720052	0.77911376953125
50.7958818717527	0.77911376953125
50.8958818715003	0.77911376953125
50.9958818712478	0.7794189453125
51.0958818709953	0.7794189453125
51.1958818707428	0.7794189453125
51.2958818704903	0.7794189453125
51.3958818702379	0.7794189453125
51.4958818699854	0.77972412109375
51.5958818697329	0.77972412109375
51.6958818694804	0.77972412109375
51.795881869228	0.77972412109375
51.8958818689755	0.77972412109375
51.995881868723	0.77972412109375
52.0958818684705	0.780029296875
52.1958818682181	0.780029296875
52.2958818679656	0.780029296875
52.3958818677131	0.780029296875
52.4958818674606	0.780029296875
52.5958818672082	0.78033447265625
52.6958818669557	0.78033447265625
52.7958818667032	0.78033447265625
52.8958818664507	0.78033447265625
52.9958818661983	0.78033447265625
53.0958818659458	0.7806396484375
53.1958818656933	0.7806396484375
53.2958818654408	0.7806396484375
53.3958818651884	0.7806396484375
53.4958818649359	0.7806396484375
53.5958818646834	0.78094482421875
53.6958818644309	0.78094482421875
53.7958818641785	0.78094482421875
53.895881863926	0.78094482421875
53.9958818636735	0.78094482421875
54.095881863421	0.78125
54.1958818631686	0.78125
54.2958818629161	0.78125
54.3958818626636	0.78125
54.4958818624111	0.78125
54.5958818621586	0.78125
54.6958818619062	0.78155517578125
54.7958818616537	0.78155517578125
54.8958818614012	0.78155517578125
54.9958818611487	0.78155517578125
55.0958818608963	0.78155517578125
55.1958818606438	0.7818603515625
55.2958818603913	0.7818603515625
55.3958818601388	0.7818603515625
55.4958818598864	0.7818603515625
55.5958818596339	0.7818603515625
55.6958818593814	0.78216552734375
55.7958818591289	0.78216552734375
55.8958818588765	0.78216552734375
55.995881858624	0.78216552734375
56.0958818583715	0.78216552734375
56.195881858119	0.78216552734375
56.2958818578666	0.782470703125
56.3958818576141	0.782470703125
56.4958818573616	0.782470703125
56.5958818571091	0.782470703125
56.6958818568567	0.782470703125
56.7958818566042	0.78277587890625
56.8958818563517	0.78277587890625
56.9958818560992	0.78277587890625
57.0958818558468	0.78277587890625
57.1958818555943	0.78277587890625
57.2958818553418	0.78277587890625
57.3958818550893	0.7830810546875
57.4958818548369	0.7830810546875
57.5958818545844	0.7830810546875
57.6958818543319	0.7830810546875
57.7958818540794	0.7830810546875
57.895881853827	0.78338623046875
57.9958818535745	0.78338623046875
58.095881853322	0.78338623046875
58.1958818530695	0.78338623046875
58.295881852817	0.78338623046875
58.3958818525646	0.78338623046875
58.4958818523121	0.78369140625
58.5958818520596	0.78369140625
58.6958818518071	0.78369140625
58.7958818515547	0.78369140625
58.8958818513022	0.78369140625
58.9958818510497	0.78369140625
59.0958818507972	0.78399658203125
59.1958818505448	0.78399658203125
59.2958818502923	0.78399658203125
59.3958818500398	0.78399658203125
59.4958818497873	0.78399658203125
59.5958818495349	0.7843017578125
59.6958818492824	0.7843017578125
59.7958818490299	0.7843017578125
59.8958818487774	0.7843017578125
59.995881848525	0.7843017578125
60.0958818482725	0.7843017578125
60.19588184802	0.7843017578125
60.2958818477675	0.78460693359375
60.3958818475151	0.78460693359375
60.4958818472626	0.78460693359375
60.5958818470101	0.78460693359375
60.6958818467576	0.78460693359375
60.7958818465052	0.784912109375
60.8958818462527	0.784912109375
60.9958818460002	0.784912109375
61.0958818457477	0.784912109375
61.1958818454953	0.784912109375
61.2958818452428	0.784912109375
61.3958818449903	0.78521728515625
61.4958818447378	0.78521728515625
61.5958818444853	0.78521728515625
61.6958818442329	0.78521728515625
61.7958818439804	0.78521728515625
61.8958818437279	0.78521728515625
61.9958818434754	0.7855224609375
62.095881843223	0.7855224609375
62.1958818429705	0.7855224609375
62.295881842718	0.7855224609375
62.3958818424655	0.7855224609375
62.4958818422131	0.7855224609375
62.5958818419606	0.78582763671875
62.6958818417081	0.78582763671875
62.7958818414556	0.78582763671875
62.8958818412032	0.78582763671875
62.9958818409507	0.78582763671875
63.0958818406982	0.78582763671875
63.1958818404457	0.7861328125
63.2958818401933	0.7861328125
63.3958818399408	0.7861328125
63.4958818396883	0.7861328125
63.5958818394358	0.7861328125
63.6958818391834	0.7861328125
63.7958818389309	0.78643798828125
63.8958818386784	0.78643798828125
63.9958818384259	0.78643798828125
64.0958818381735	0.78643798828125
64.195881837921	0.78643798828125
64.2958818376685	0.78643798828125
64.395881837416	0.7867431640625
64.4958818371636	0.7867431640625
64.5958818369111	0.7867431640625
64.6958818366586	0.7867431640625
64.7958818364061	0.7867431640625
64.8958818361536	0.7867431640625
64.9958818359012	0.78704833984375
65.0958818356487	0.78704833984375
65.1958818353962	0.78704833984375
65.2958818351437	0.78704833984375
65.3958818348913	0.78704833984375
65.4958818346388	0.78704833984375
65.5958818343863	0.787353515625
65.6958818341338	0.787353515625
65.7958818338814	0.787353515625
65.8958818336289	0.787353515625
65.9958818333764	0.787353515625
66.0958818331239	0.787353515625
66.1958818328715	0.78765869140625
66.295881832619	0.78765869140625
66.3958818323665	0.78765869140625
66.495881832114	0.78765869140625
66.5958818318616	0.78765869140625
66.6958818316091	0.78765869140625
66.7958818313566	0.7879638671875
66.8958818311041	0.7879638671875
66.9958818308517	0.7879638671875
67.0958818305992	0.7879638671875
67.1958818303467	0.7879638671875
67.2958818300942	0.7879638671875
67.3958818298418	0.78826904296875
67.4958818295893	0.78826904296875
67.5958818293368	0.78826904296875
67.6958818290843	0.78826904296875
67.7958818288319	0.78826904296875
67.8958818285794	0.78826904296875
67.9958818283269	0.78826904296875
68.0958818280744	0.78857421875
68.195881827822	0.78857421875
68.2958818275695	0.78857421875
68.395881827317	0.78857421875
68.4958818270645	0.78857421875
68.595881826812	0.78857421875
68.6958818265596	0.78887939453125
68.7958818263071	0.78887939453125
68.8958818260546	0.78887939453125
68.9958818258021	0.78887939453125
