Time (s)	WE(1).Potential (V)
680.573677281717	0.9173583984375
681.573677279192	0.8544921875
682.573677276667	0.79986572265625
683.573677274142	0.75103759765625
684.573677271618	0.706787109375
685.573677269093	0.66619873046875
686.573677266568	0.62835693359375
687.573677264043	0.59356689453125
688.573677261519	0.56121826171875
689.573677258994	0.531005859375
690.573677256469	0.50262451171875
691.573677253944	0.475921630859375
692.57367725142	0.45123291015625
693.573677248895	0.4283447265625
694.57367724637	0.4073486328125
695.573677243845	0.3880615234375
696.573677241321	0.37030029296875
697.573677238796	0.353912353515625
698.573677236271	0.3387451171875
699.573677233746	0.32470703125
700.573677231221	0.311798095703125
701.573677228697	0.29998779296875
702.573677226172	0.28924560546875
703.573677223647	0.279541015625
704.573677221122	0.270782470703125
705.573677218598	0.26287841796875
706.573677216073	0.255767822265625
707.573677213548	0.249298095703125
708.573677211023	0.243438720703125
709.573677208499	0.23809814453125
710.573677205974	0.233245849609375
711.573677203449	0.228759765625
712.573677200924	0.224700927734375
713.5736771984	0.22088623046875
714.573677195875	0.2174072265625
715.57367719335	0.21417236328125
716.573677190825	0.211151123046875
717.573677188301	0.208343505859375
718.573677185776	0.205718994140625
719.573677183251	0.2032470703125
720.573677180726	0.200927734375
721.573677178202	0.19873046875
722.573677175677	0.196685791015625
723.573677173152	0.194732666015625
724.573677170627	0.192901611328125
725.573677168103	0.191131591796875
726.573677165578	0.189483642578125
727.573677163053	0.1878662109375
728.573677160528	0.18634033203125
729.573677158004	0.18487548828125
730.573677155479	0.183502197265625
731.573677152954	0.182159423828125
732.573677150429	0.180908203125
733.573677147905	0.179656982421875
734.57367714538	0.178497314453125
735.573677142855	0.177337646484375
736.57367714033	0.176239013671875
737.573677137805	0.175201416015625
738.573677135281	0.174163818359375
739.573677132756	0.173187255859375
740.573677130231	0.1722412109375
741.573677127706	0.171295166015625
742.573677125182	0.17041015625
743.573677122657	0.169525146484375
744.573677120132	0.168701171875
745.573677117607	0.16790771484375
746.573677115083	0.167083740234375
747.573677112558	0.16632080078125
748.573677110033	0.16558837890625
749.573677107508	0.16485595703125
750.573677104984	0.164154052734375
751.573677102459	0.1634521484375
752.573677099934	0.16278076171875
753.573677097409	0.162139892578125
754.573677094885	0.1614990234375
755.57367709236	0.160888671875
756.573677089835	0.1602783203125
757.57367708731	0.159698486328125
758.573677084786	0.15911865234375
759.573677082261	0.1585693359375
760.573677079736	0.157989501953125
761.573677077211	0.157470703125
762.573677074687	0.15692138671875
763.573677072162	0.15643310546875
764.573677069637	0.155914306640625
765.573677067112	0.15545654296875
766.573677064588	0.15496826171875
767.573677062063	0.15447998046875
768.573677059538	0.154022216796875
769.573677057013	0.153564453125
770.573677054488	0.153076171875
771.573677051964	0.15264892578125
772.573677049439	0.1522216796875
773.573677046914	0.151763916015625
774.573677044389	0.1513671875
775.573677041865	0.15093994140625
776.57367703934	0.150543212890625
777.573677036815	0.150146484375
778.57367703429	0.1497802734375
779.573677031766	0.14935302734375
780.573677029241	0.149017333984375
781.573677026716	0.14862060546875
782.573677024191	0.14825439453125
783.573677021667	0.147918701171875
784.573677019142	0.147552490234375
785.573677016617	0.147216796875
786.573677014092	0.1468505859375
787.573677011568	0.14654541015625
788.573677009043	0.14617919921875
789.573677006518	0.1458740234375
790.573677003993	0.14556884765625
791.573677001469	0.145233154296875
792.573676998944	0.144927978515625
793.573676996419	0.144622802734375
794.573676993894	0.144317626953125
795.57367699137	0.144012451171875
796.573676988845	0.14373779296875
797.57367698632	0.1434326171875
798.573676983795	0.143157958984375
799.573676981271	0.14288330078125
