Time (s)	WE(1).Potential (V)
2.03376599486523	0.0484344482421875
3.03376599234048	0.0484954833984375
4.03376598981572	0.0485595703125
5.03376598729096	0.048638916015625
6.03376598476621	0.0487030029296875
7.03376598224145	0.04874267578125
8.03376597971669	0.0488006591796875
9.03376597719193	0.04886474609375
10.0337659746672	0.048931884765625
11.0337659721424	0.0489990234375
12.0337659696177	0.04906005859375
13.0337659670929	0.04913330078125
14.0337659645681	0.049163818359375
15.0337659620434	0.04925537109375
16.0337659595186	0.04931640625
17.0337659569939	0.04937744140625
18.0337659544691	0.0494384765625
19.0337659519444	0.04949951171875
20.0337659494196	0.049560546875
21.0337659468948	0.04962158203125
22.0337659443701	0.049713134765625
23.0337659418453	0.04974365234375
24.0337659393206	0.0498046875
25.0337659367958	0.04986572265625
26.0337659342711	0.0499267578125
27.0337659317463	0.04998779296875
28.0337659292215	0.050048828125
29.0337659266968	0.050079345703125
30.033765924172	0.050140380859375
31.0337659216473	0.050201416015625
32.0337659191225	0.050262451171875
33.0337659165978	0.050323486328125
34.033765914073	0.050384521484375
35.0337659115482	0.050445556640625
36.0337659090235	0.05047607421875
37.0337659064987	0.050537109375
38.033765903974	0.05059814453125
39.0337659014492	0.0506591796875
40.0337658989245	0.05072021484375
41.0337658963997	0.050811767578125
42.0337658938749	0.050872802734375
43.0337658913502	0.050933837890625
44.0337658888254	0.050994873046875
45.0337658863007	0.051025390625
46.0337658837759	0.05108642578125
47.0337658812512	0.0511474609375
48.0337658787264	0.051239013671875
49.0337658762016	0.051300048828125
50.0337658736769	0.051361083984375
51.0337658711521	0.0513916015625
52.0337658686274	0.05145263671875
53.0337658661026	0.051513671875
54.0337658635779	0.05157470703125
55.0337658610531	0.051605224609375
56.0337658585283	0.051666259765625
57.0337658560036	0.051727294921875
58.0337658534788	0.0517578125
59.0337658509541	0.05181884765625
60.0337658484293	0.0518798828125
61.0337658459046	0.05194091796875
