Time (s)	WE(1).Potential (V)
4.60528698837277	0.433685302734375
4.70528698812029	0.43377685546875
4.80528698786782	0.433868408203125
4.90528698761534	0.4339599609375
5.00528698736287	0.434051513671875
5.10528698711039	0.43414306640625
5.20528698685791	0.434234619140625
5.30528698660544	0.434326171875
5.40528698635296	0.434417724609375
5.50528698610049	0.43450927734375
5.60528698584801	0.434600830078125
5.70528698559554	0.4346923828125
5.80528698534306	0.434783935546875
5.90528698509058	0.43487548828125
6.00528698483811	0.434967041015625
6.10528698458563	0.435089111328125
6.20528698433316	0.4351806640625
6.30528698408068	0.435272216796875
6.4052869838282	0.43536376953125
6.50528698357573	0.435455322265625
6.60528698332325	0.435546875
6.70528698307078	0.435638427734375
6.8052869828183	0.43572998046875
6.90528698256583	0.435821533203125
7.00528698231335	0.4359130859375
7.10528698206087	0.43603515625
7.2052869818084	0.436126708984375
7.30528698155592	0.43621826171875
7.40528698130345	0.436309814453125
7.50528698105097	0.4364013671875
7.6052869807985	0.436492919921875
7.70528698054602	0.43658447265625
7.80528698029354	0.436676025390625
7.90528698004107	0.436767578125
8.00528697978859	0.4368896484375
8.10528697953612	0.436981201171875
8.20528697928364	0.43707275390625
8.30528697903117	0.437164306640625
8.40528697877869	0.437255859375
8.50528697852621	0.437347412109375
8.60528697827374	0.437469482421875
8.70528697802126	0.43756103515625
8.80528697776879	0.437652587890625
8.90528697751631	0.437744140625
9.00528697726384	0.437835693359375
9.10528697701136	0.43792724609375
9.20528697675888	0.43804931640625
9.30528697650641	0.438140869140625
9.40528697625393	0.438232421875
9.50528697600146	0.438323974609375
9.60528697574898	0.43841552734375
9.70528697549651	0.438507080078125
9.80528697524403	0.438629150390625
9.90528697499155	0.438720703125
10.0052869747391	0.438812255859375
10.1052869744866	0.43890380859375
10.2052869742341	0.438995361328125
10.3052869739817	0.439117431640625
10.4052869737292	0.439208984375
10.5052869734767	0.439300537109375
10.6052869732242	0.43939208984375
10.7052869729717	0.439483642578125
10.8052869727193	0.439605712890625
10.9052869724668	0.439697265625
11.0052869722143	0.439788818359375
11.1052869719618	0.43988037109375
11.2052869717094	0.439971923828125
11.3052869714569	0.440093994140625
11.4052869712044	0.440185546875
11.5052869709519	0.440277099609375
11.6052869706995	0.44036865234375
11.705286970447	0.440460205078125
11.8052869701945	0.440582275390625
11.905286969942	0.440673828125
12.0052869696896	0.440765380859375
12.1052869694371	0.44085693359375
12.2052869691846	0.44097900390625
12.3052869689321	0.441070556640625
12.4052869686797	0.441162109375
12.5052869684272	0.441253662109375
12.6052869681747	0.44134521484375
12.7052869679222	0.44146728515625
12.8052869676698	0.441558837890625
12.9052869674173	0.441650390625
13.0052869671648	0.441741943359375
13.1052869669123	0.44183349609375
13.2052869666599	0.44195556640625
13.3052869664074	0.442047119140625
13.4052869661549	0.442138671875
13.5052869659024	0.442230224609375
13.60528696565	0.44232177734375
13.7052869653975	0.44244384765625
13.805286965145	0.442535400390625
13.9052869648925	0.442626953125
14.0052869646401	0.442718505859375
14.1052869643876	0.44281005859375
14.2052869641351	0.44293212890625
14.3052869638826	0.443023681640625
14.4052869636301	0.443115234375
14.5052869633777	0.443206787109375
14.6052869631252	0.44329833984375
14.7052869628727	0.44342041015625
14.8052869626202	0.443511962890625
14.9052869623678	0.443603515625
15.0052869621153	0.443695068359375
15.1052869618628	0.44378662109375
15.2052869616103	0.44390869140625
15.3052869613579	0.444000244140625
15.4052869611054	0.444091796875
15.5052869608529	0.444183349609375
15.6052869606004	0.44427490234375
15.705286960348	0.44439697265625
15.8052869600955	0.444488525390625
15.905286959843	0.444580078125
16.0052869595905	0.444671630859375
16.1052869593381	0.44476318359375
16.2052869590856	0.444854736328125
16.3052869588331	0.4449462890625
16.4052869585806	0.445068359375
16.5052869583282	0.445159912109375
16.6052869580757	0.44525146484375
16.7052869578232	0.445343017578125
16.8052869575707	0.4454345703125
16.9052869573183	0.445526123046875
17.0052869570658	0.44561767578125
17.1052869568133	0.445709228515625
17.2052869565608	0.445831298828125
17.3052869563084	0.4459228515625
17.4052869560559	0.446014404296875
17.5052869558034	0.44610595703125
17.6052869555509	0.446197509765625
17.7052869552984	0.4462890625
17.805286955046	0.446380615234375
17.9052869547935	0.44647216796875
18.005286954541	0.44659423828125
18.1052869542885	0.446685791015625
18.2052869540361	0.44677734375
18.3052869537836	0.446868896484375
18.4052869535311	0.44696044921875
18.5052869532786	0.447052001953125
18.6052869530262	0.4471435546875
18.7052869527737	0.447235107421875
18.8052869525212	0.44732666015625
18.9052869522687	0.447418212890625
19.0052869520163	0.447540283203125
19.1052869517638	0.4476318359375
19.2052869515113	0.447723388671875
19.3052869512588	0.44781494140625
19.4052869510064	0.447906494140625
19.5052869507539	0.447998046875
19.6052869505014	0.448089599609375
19.7052869502489	0.44818115234375
19.8052869499965	0.448272705078125
19.905286949744	0.4483642578125
20.0052869494915	0.448455810546875
20.105286949239	0.44854736328125
20.2052869489866	0.448638916015625
20.3052869487341	0.44873046875
20.4052869484816	0.448822021484375
20.5052869482291	0.44891357421875
20.6052869479767	0.449005126953125
20.7052869477242	0.4490966796875
20.8052869474717	0.449188232421875
20.9052869472192	0.44927978515625
21.0052869469667	0.449371337890625
21.1052869467143	0.449462890625
21.2052869464618	0.449554443359375
21.3052869462093	0.44964599609375
21.4052869459568	0.449737548828125
21.5052869457044	0.4498291015625
21.6052869454519	0.449920654296875
21.7052869451994	0.45001220703125
21.8052869449469	0.450103759765625
21.9052869446945	0.4501953125
22.005286944442	0.450286865234375
22.1052869441895	0.45037841796875
22.205286943937	0.450469970703125
22.3052869436846	0.4505615234375
22.4052869434321	0.450653076171875
22.5052869431796	0.45074462890625
22.6052869429271	0.450836181640625
22.7052869426747	0.450927734375
22.8052869424222	0.451019287109375
22.9052869421697	0.45111083984375
23.0052869419172	0.451171875
23.1052869416648	0.451263427734375
23.2052869414123	0.45135498046875
23.3052869411598	0.451446533203125
23.4052869409073	0.4515380859375
23.5052869406549	0.451629638671875
23.6052869404024	0.45172119140625
23.7052869401499	0.451812744140625
23.8052869398974	0.451904296875
23.905286939645	0.451995849609375
24.0052869393925	0.452056884765625
24.10528693914	0.4521484375
24.2052869388875	0.452239990234375
24.305286938635	0.45233154296875
24.4052869383826	0.452423095703125
24.5052869381301	0.4525146484375
24.6052869378776	0.45257568359375
24.7052869376251	0.452667236328125
24.8052869373727	0.4527587890625
24.9052869371202	0.452850341796875
25.0052869368677	0.45294189453125
25.1052869366152	0.4530029296875
25.2052869363628	0.453094482421875
25.3052869361103	0.45318603515625
25.4052869358578	0.453277587890625
25.5052869356053	0.453369140625
25.6052869353529	0.45343017578125
25.7052869351004	0.453521728515625
25.8052869348479	0.45361328125
25.9052869345954	0.453704833984375
26.005286934343	0.45379638671875
26.1052869340905	0.453857421875
26.205286933838	0.453948974609375
26.3052869335855	0.45404052734375
26.4052869333331	0.4541015625
26.5052869330806	0.454193115234375
26.6052869328281	0.45428466796875
26.7052869325756	0.454376220703125
26.8052869323232	0.454437255859375
26.9052869320707	0.45452880859375
27.0052869318182	0.454620361328125
27.1052869315657	0.4547119140625
27.2052869313133	0.45477294921875
27.3052869310608	0.454864501953125
27.4052869308083	0.4549560546875
27.5052869305558	0.45501708984375
27.6052869303034	0.455108642578125
27.7052869300509	0.4552001953125
27.8052869297984	0.45526123046875
27.9052869295459	0.455352783203125
28.0052869292934	0.4554443359375
28.105286929041	0.45550537109375
28.2052869287885	0.455596923828125
28.305286928536	0.455657958984375
28.4052869282835	0.45574951171875
28.5052869280311	0.455841064453125
28.6052869277786	0.455902099609375
28.7052869275261	0.45599365234375
28.8052869272736	0.456085205078125
28.9052869270212	0.456146240234375
29.0052869267687	0.45623779296875
29.1052869265162	0.456298828125
29.2052869262637	0.456390380859375
29.3052869260113	0.45648193359375
29.4052869257588	0.45654296875
29.5052869255063	0.456634521484375
29.6052869252538	0.456695556640625
29.7052869250014	0.456787109375
29.8052869247489	0.45684814453125
29.9052869244964	0.456939697265625
30.0052869242439	0.45703125
30.1052869239915	0.45709228515625
30.205286923739	0.457183837890625
30.3052869234865	0.457244873046875
30.405286923234	0.45733642578125
30.5052869229816	0.4573974609375
30.6052869227291	0.457489013671875
30.7052869224766	0.457550048828125
30.8052869222241	0.4576416015625
30.9052869219717	0.45770263671875
31.0052869217192	0.457794189453125
31.1052869214667	0.457855224609375
31.2052869212142	0.45794677734375
31.3052869209617	0.4580078125
31.4052869207093	0.458099365234375
31.5052869204568	0.458160400390625
31.6052869202043	0.458221435546875
31.7052869199518	0.45831298828125
31.8052869196994	0.4583740234375
31.9052869194469	0.458465576171875
32.0052869191944	0.458526611328125
32.1052869189419	0.4586181640625
32.2052869186895	0.45867919921875
32.305286918437	0.458770751953125
32.4052869181845	0.458831787109375
32.505286917932	0.458892822265625
32.6052869176796	0.458984375
32.7052869174271	0.45904541015625
32.8052869171746	0.459136962890625
32.9052869169221	0.459197998046875
33.0052869166697	0.459259033203125
33.1052869164172	0.4593505859375
33.2052869161647	0.45941162109375
33.3052869159122	0.45947265625
33.4052869156598	0.459564208984375
33.5052869154073	0.459625244140625
33.6052869151548	0.459716796875
33.7052869149023	0.45977783203125
33.8052869146499	0.4598388671875
33.9052869143974	0.459930419921875
34.0052869141449	0.459991455078125
34.1052869138924	0.460052490234375
34.20528691364	0.46014404296875
34.3052869133875	0.460205078125
34.405286913135	0.46026611328125
34.5052869128825	0.460357666015625
34.60528691263	0.460418701171875
34.7052869123776	0.460479736328125
34.8052869121251	0.460540771484375
34.9052869118726	0.46063232421875
35.0052869116201	0.460693359375
35.1052869113677	0.46075439453125
35.2052869111152	0.4608154296875
35.3052869108627	0.460906982421875
35.4052869106102	0.460968017578125
35.5052869103578	0.461029052734375
35.6052869101053	0.461090087890625
35.7052869098528	0.461181640625
35.8052869096003	0.46124267578125
35.9052869093479	0.4613037109375
36.0052869090954	0.46136474609375
36.1052869088429	0.461456298828125
36.2052869085904	0.461517333984375
36.305286908338	0.461578369140625
36.4052869080855	0.461639404296875
36.505286907833	0.461700439453125
36.6052869075805	0.461761474609375
36.7052869073281	0.46185302734375
36.8052869070756	0.4619140625
36.9052869068231	0.46197509765625
37.0052869065706	0.4620361328125
37.1052869063182	0.46209716796875
37.2052869060657	0.462188720703125
37.3052869058132	0.462249755859375
37.4052869055607	0.462310791015625
37.5052869053083	0.462371826171875
37.6052869050558	0.462432861328125
37.7052869048033	0.462493896484375
37.8052869045508	0.462554931640625
37.9052869042984	0.462646484375
38.0052869040459	0.46270751953125
38.1052869037934	0.4627685546875
38.2052869035409	0.46282958984375
38.3052869032884	0.462890625
38.405286903036	0.46295166015625
38.5052869027835	0.4630126953125
38.605286902531	0.46307373046875
38.7052869022785	0.463134765625
38.8052869020261	0.46319580078125
38.9052869017736	0.463287353515625
39.0052869015211	0.463348388671875
39.1052869012686	0.463409423828125
39.2052869010162	0.463470458984375
39.3052869007637	0.463531494140625
39.4052869005112	0.463592529296875
39.5052869002587	0.463653564453125
39.6052869000063	0.463714599609375
39.7052868997538	0.463775634765625
39.8052868995013	0.463836669921875
39.9052868992488	0.463897705078125
40.0052868989964	0.463958740234375
40.1052868987439	0.464019775390625
40.2052868984914	0.464080810546875
40.3052868982389	0.464141845703125
40.4052868979865	0.464202880859375
40.505286897734	0.464263916015625
40.6052868974815	0.464324951171875
40.705286897229	0.464385986328125
40.8052868969766	0.464447021484375
40.9052868967241	0.464508056640625
41.0052868964716	0.464569091796875
41.1052868962191	0.464630126953125
41.2052868959667	0.464691162109375
41.3052868957142	0.464752197265625
41.4052868954617	0.464813232421875
41.5052868952092	0.464874267578125
41.6052868949567	0.464935302734375
41.7052868947043	0.464996337890625
41.8052868944518	0.465057373046875
41.9052868941993	0.465118408203125
42.0052868939468	0.465179443359375
42.1052868936944	0.465240478515625
42.2052868934419	0.465301513671875
42.3052868931894	0.46533203125
42.4052868929369	0.46539306640625
42.5052868926845	0.4654541015625
42.605286892432	0.46551513671875
42.7052868921795	0.465576171875
42.805286891927	0.46563720703125
42.9052868916746	0.4656982421875
43.0052868914221	0.46575927734375
43.1052868911696	0.4658203125
43.2052868909171	0.465850830078125
43.3052868906647	0.465911865234375
43.4052868904122	0.465972900390625
43.5052868901597	0.466033935546875
43.6052868899072	0.466094970703125
43.7052868896548	0.466156005859375
43.8052868894023	0.466217041015625
43.9052868891498	0.46624755859375
44.0052868888973	0.46630859375
44.1052868886449	0.46636962890625
44.2052868883924	0.4664306640625
44.3052868881399	0.46649169921875
44.4052868878874	0.466552734375
44.505286887635	0.466583251953125
44.6052868873825	0.466644287109375
44.70528688713	0.466705322265625
44.8052868868775	0.466766357421875
44.905286886625	0.466827392578125
45.0052868863726	0.46685791015625
45.1052868861201	0.4669189453125
45.2052868858676	0.46697998046875
45.3052868856151	0.467041015625
45.4052868853627	0.467071533203125
45.5052868851102	0.467132568359375
45.6052868848577	0.467193603515625
45.7052868846052	0.467254638671875
45.8052868843528	0.467315673828125
45.9052868841003	0.46734619140625
46.0052868838478	0.4674072265625
46.1052868835953	0.46746826171875
46.2052868833429	0.467529296875
46.3052868830904	0.467559814453125
46.4052868828379	0.467620849609375
46.5052868825854	0.467681884765625
46.605286882333	0.46771240234375
46.7052868820805	0.4677734375
46.805286881828	0.46783447265625
46.9052868815755	0.4678955078125
47.0052868813231	0.467926025390625
47.1052868810706	0.467987060546875
47.2052868808181	0.468048095703125
47.3052868805656	0.46807861328125
47.4052868803132	0.4681396484375
47.5052868800607	0.46820068359375
47.6052868798082	0.468231201171875
47.7052868795557	0.468292236328125
47.8052868793033	0.468353271484375
47.9052868790508	0.468414306640625
48.0052868787983	0.46844482421875
48.1052868785458	0.468505859375
48.2052868782934	0.468536376953125
48.3052868780409	0.468597412109375
48.4052868777884	0.468658447265625
48.5052868775359	0.46868896484375
48.6052868772834	0.46875
48.705286877031	0.46881103515625
48.8052868767785	0.468841552734375
48.905286876526	0.468902587890625
49.0052868762735	0.46893310546875
49.1052868760211	0.468994140625
49.2052868757686	0.46905517578125
49.3052868755161	0.469085693359375
49.4052868752636	0.469146728515625
49.5052868750112	0.46917724609375
49.6052868747587	0.46923828125
49.7052868745062	0.46929931640625
49.8052868742537	0.469329833984375
49.9052868740013	0.469390869140625
50.0052868737488	0.46942138671875
50.1052868734963	0.469482421875
50.2052868732438	0.469512939453125
50.3052868729914	0.469573974609375
50.4052868727389	0.469635009765625
50.5052868724864	0.46966552734375
50.6052868722339	0.4697265625
50.7052868719815	0.469757080078125
50.805286871729	0.469818115234375
50.9052868714765	0.4698486328125
51.005286871224	0.46990966796875
51.1052868709716	0.469940185546875
51.2052868707191	0.470001220703125
51.3052868704666	0.47003173828125
51.4052868702141	0.4700927734375
51.5052868699617	0.47015380859375
51.6052868697092	0.470184326171875
51.7052868694567	0.47021484375
51.8052868692042	0.47027587890625
51.9052868689517	0.470306396484375
52.0052868686993	0.470367431640625
52.1052868684468	0.470428466796875
52.2052868681943	0.470458984375
52.3052868679418	0.47052001953125
52.4052868676894	0.470550537109375
52.5052868674369	0.4705810546875
52.6052868671844	0.47064208984375
52.7052868669319	0.470672607421875
52.8052868666795	0.470733642578125
52.905286866427	0.47076416015625
53.0052868661745	0.4708251953125
53.105286865922	0.470855712890625
53.2052868656696	0.470916748046875
53.3052868654171	0.470947265625
53.4052868651646	0.47100830078125
53.5052868649121	0.471038818359375
53.6052868646597	0.4710693359375
53.7052868644072	0.47113037109375
53.8052868641547	0.471160888671875
53.9052868639022	0.471221923828125
54.0052868636498	0.47125244140625
54.1052868633973	0.4713134765625
54.2052868631448	0.471343994140625
54.3052868628923	0.47137451171875
54.4052868626399	0.471435546875
54.5052868623874	0.471466064453125
54.6052868621349	0.471527099609375
54.7052868618824	0.4715576171875
54.80528686163	0.471588134765625
54.9052868613775	0.471649169921875
55.005286861125	0.4716796875
55.1052868608725	0.47174072265625
55.20528686062	0.471771240234375
55.3052868603676	0.4718017578125
55.4052868601151	0.47186279296875
55.5052868598626	0.471893310546875
55.6052868596101	0.471954345703125
55.7052868593577	0.47198486328125
55.8052868591052	0.472015380859375
55.9052868588527	0.472076416015625
56.0052868586002	0.47210693359375
56.1052868583478	0.472137451171875
56.2052868580953	0.472198486328125
56.3052868578428	0.47222900390625
56.4052868575903	0.472259521484375
56.5052868573379	0.472320556640625
56.6052868570854	0.47235107421875
56.7052868568329	0.472412109375
56.8052868565804	0.472442626953125
56.905286856328	0.47247314453125
57.0052868560755	0.472503662109375
57.105286855823	0.472564697265625
57.2052868555705	0.47259521484375
57.3052868553181	0.472625732421875
57.4052868550656	0.472686767578125
57.5052868548131	0.47271728515625
57.6052868545606	0.472747802734375
57.7052868543082	0.472808837890625
57.8052868540557	0.47283935546875
57.9052868538032	0.472869873046875
58.0052868535507	0.472930908203125
58.1052868532983	0.47296142578125
58.2052868530458	0.472991943359375
58.3052868527933	0.4730224609375
58.4052868525408	0.47308349609375
58.5052868522884	0.473114013671875
58.6052868520359	0.47314453125
58.7052868517834	0.47320556640625
58.8052868515309	0.473236083984375
58.9052868512784	0.4732666015625
59.005286851026	0.473297119140625
59.1052868507735	0.473358154296875
59.205286850521	0.473388671875
59.3052868502685	0.473419189453125
59.4052868500161	0.47344970703125
59.5052868497636	0.4735107421875
59.6052868495111	0.473541259765625
59.7052868492586	0.47357177734375
59.8052868490062	0.473602294921875
59.9052868487537	0.473663330078125
60.0052868485012	0.47369384765625
60.1052868482487	0.473724365234375
60.2052868479963	0.4737548828125
60.3052868477438	0.47381591796875
60.4052868474913	0.473846435546875
60.5052868472388	0.473876953125
60.6052868469864	0.473907470703125
60.7052868467339	0.47393798828125
60.8052868464814	0.4739990234375
60.9052868462289	0.474029541015625
61.0052868459765	0.47406005859375
61.105286845724	0.474090576171875
61.2052868454715	0.47412109375
61.305286845219	0.47418212890625
61.4052868449666	0.474212646484375
61.5052868447141	0.4742431640625
61.6052868444616	0.474273681640625
61.7052868442091	0.47430419921875
61.8052868439567	0.474365234375
61.9052868437042	0.474395751953125
62.0052868434517	0.47442626953125
62.1052868431992	0.474456787109375
62.2052868429467	0.4744873046875
62.3052868426943	0.474517822265625
62.4052868424418	0.474578857421875
62.5052868421893	0.474609375
62.6052868419368	0.474639892578125
62.7052868416844	0.47467041015625
62.8052868414319	0.474700927734375
62.9052868411794	0.4747314453125
63.0052868409269	0.47479248046875
63.1052868406745	0.474822998046875
63.205286840422	0.474853515625
63.3052868401695	0.474884033203125
63.405286839917	0.47491455078125
63.5052868396646	0.474945068359375
63.6052868394121	0.4749755859375
63.7052868391596	0.47503662109375
63.8052868389071	0.475067138671875
63.9052868386547	0.47509765625
64.0052868384022	0.475128173828125
64.1052868381497	0.47515869140625
64.2052868378972	0.475189208984375
64.3052868376448	0.4752197265625
64.4052868373923	0.475250244140625
64.5052868371398	0.475311279296875
