Time (s)	WE(1).Potential (V)
818.930860932398	0.313873291015625
819.030860932146	0.31353759765625
819.130860931893	0.3131103515625
819.230860931641	0.312652587890625
819.330860931388	0.312164306640625
819.430860931136	0.311676025390625
819.530860930883	0.311187744140625
819.630860930631	0.310699462890625
819.730860930379	0.3101806640625
819.830860930126	0.3096923828125
819.930860929874	0.3092041015625
820.030860929621	0.3087158203125
820.130860929369	0.308197021484375
820.230860929116	0.3077392578125
820.330860928864	0.3072509765625
820.430860928611	0.3067626953125
820.530860928359	0.306304931640625
820.630860928106	0.305816650390625
820.730860927854	0.30535888671875
820.830860927601	0.304901123046875
820.930860927349	0.304473876953125
821.030860927096	0.30401611328125
821.130860926844	0.3035888671875
821.230860926591	0.303131103515625
821.330860926339	0.302703857421875
821.430860926086	0.302276611328125
821.530860925834	0.3018798828125
821.630860925581	0.30145263671875
821.730860925329	0.301055908203125
821.830860925077	0.300628662109375
821.930860924824	0.30023193359375
822.030860924572	0.299835205078125
822.130860924319	0.299468994140625
822.230860924067	0.299072265625
822.330860923814	0.2987060546875
822.430860923562	0.298309326171875
822.530860923309	0.297943115234375
822.630860923057	0.297576904296875
822.730860922804	0.297210693359375
822.830860922552	0.296875
822.930860922299	0.2965087890625
823.030860922047	0.296173095703125
823.130860921794	0.29583740234375
823.230860921542	0.295501708984375
823.330860921289	0.295166015625
823.430860921037	0.294830322265625
823.530860920784	0.29449462890625
823.630860920532	0.294189453125
823.73086092028	0.293853759765625
823.830860920027	0.293548583984375
823.930860919775	0.293243408203125
824.030860919522	0.29290771484375
824.13086091927	0.292633056640625
824.230860919017	0.292327880859375
824.330860918765	0.292022705078125
824.430860918512	0.291717529296875
824.53086091826	0.29144287109375
824.630860918007	0.2911376953125
824.730860917755	0.290863037109375
824.830860917502	0.29058837890625
824.93086091725	0.290313720703125
825.030860916997	0.2900390625
825.130860916745	0.289764404296875
825.230860916492	0.289520263671875
825.33086091624	0.28924560546875
825.430860915987	0.288970947265625
825.530860915735	0.288726806640625
825.630860915482	0.288482666015625
825.73086091523	0.2882080078125
825.830860914978	0.2879638671875
825.930860914725	0.2877197265625
826.030860914473	0.2874755859375
826.13086091422	0.2872314453125
826.230860913968	0.2869873046875
826.330860913715	0.2867431640625
826.430860913463	0.286529541015625
826.53086091321	0.286285400390625
826.630860912958	0.28607177734375
826.730860912705	0.28582763671875
826.830860912453	0.285614013671875
826.9308609122	0.285369873046875
827.030860911948	0.28515625
827.130860911695	0.284942626953125
827.230860911443	0.28472900390625
827.33086091119	0.284515380859375
827.430860910938	0.2843017578125
827.530860910685	0.284088134765625
827.630860910433	0.28387451171875
827.73086091018	0.28369140625
827.830860909928	0.283477783203125
827.930860909676	0.283294677734375
828.030860909423	0.2830810546875
828.130860909171	0.28289794921875
828.230860908918	0.282684326171875
828.330860908666	0.282501220703125
828.430860908413	0.282318115234375
828.530860908161	0.2821044921875
828.630860907908	0.28192138671875
828.730860907656	0.28173828125
828.830860907403	0.28155517578125
828.930860907151	0.2813720703125
829.030860906898	0.28118896484375
829.130860906646	0.281005859375
829.230860906393	0.28082275390625
829.330860906141	0.280670166015625
829.430860905888	0.280487060546875
829.530860905636	0.280303955078125
829.630860905383	0.2801513671875
829.730860905131	0.27996826171875
829.830860904878	0.279815673828125
829.930860904626	0.279632568359375
830.030860904374	0.27947998046875
830.130860904121	0.279296875
830.230860903869	0.279144287109375
830.330860903616	0.27899169921875
830.430860903364	0.278839111328125
830.530860903111	0.278656005859375
830.630860902859	0.27850341796875
830.730860902606	0.278350830078125
830.830860902354	0.2781982421875
830.930860902101	0.278045654296875
831.030860901849	0.27789306640625
831.130860901596	0.277740478515625
831.230860901344	0.277587890625
831.330860901091	0.277435302734375
831.430860900839	0.277313232421875
831.530860900586	0.27716064453125
831.630860900334	0.277008056640625
831.730860900081	0.27685546875
831.830860899829	0.2767333984375
831.930860899576	0.276580810546875
832.030860899324	0.276458740234375
832.130860899072	0.27630615234375
832.230860898819	0.27618408203125
832.330860898567	0.276031494140625
832.430860898314	0.275909423828125
832.530860898062	0.2757568359375
832.630860897809	0.275634765625
832.730860897557	0.2755126953125
832.830860897304	0.275360107421875
832.930860897052	0.275238037109375
833.030860896799	0.275115966796875
833.130860896547	0.274993896484375
833.230860896294	0.274871826171875
833.330860896042	0.27471923828125
833.430860895789	0.27459716796875
833.530860895537	0.27447509765625
833.630860895284	0.27435302734375
833.730860895032	0.27423095703125
833.830860894779	0.27410888671875
833.930860894527	0.27398681640625
834.030860894275	0.273895263671875
834.130860894022	0.273773193359375
834.23086089377	0.273651123046875
834.330860893517	0.273529052734375
834.430860893265	0.273406982421875
834.530860893012	0.2733154296875
834.63086089276	0.273193359375
834.730860892507	0.2730712890625
834.830860892255	0.272979736328125
834.930860892002	0.272857666015625
835.03086089175	0.272735595703125
835.130860891497	0.27264404296875
835.230860891245	0.27252197265625
835.330860890992	0.272430419921875
835.43086089074	0.272308349609375
835.530860890487	0.272216796875
835.630860890235	0.2720947265625
835.730860889982	0.272003173828125
835.83086088973	0.271881103515625
835.930860889477	0.27178955078125
836.030860889225	0.271697998046875
836.130860888973	0.271575927734375
836.23086088872	0.271484375
836.330860888468	0.271392822265625
836.430860888215	0.271270751953125
836.530860887963	0.27117919921875
836.63086088771	0.271087646484375
836.730860887458	0.27099609375
836.830860887205	0.2708740234375
836.930860886953	0.270782470703125
837.0308608867	0.27069091796875
837.130860886448	0.270599365234375
837.230860886195	0.2705078125
837.330860885943	0.270416259765625
837.43086088569	0.27032470703125
837.530860885438	0.270233154296875
837.630860885185	0.2701416015625
837.730860884933	0.270050048828125
837.83086088468	0.26995849609375
837.930860884428	0.269866943359375
838.030860884175	0.269775390625
838.130860883923	0.269683837890625
838.230860883671	0.26959228515625
838.330860883418	0.269500732421875
838.430860883166	0.2694091796875
838.530860882913	0.269317626953125
838.630860882661	0.26922607421875
838.730860882408	0.2691650390625
838.830860882156	0.269073486328125
838.930860881903	0.26898193359375
839.030860881651	0.268890380859375
839.130860881398	0.268798828125
839.230860881146	0.26873779296875
839.330860880893	0.268646240234375
839.430860880641	0.2685546875
839.530860880388	0.26849365234375
839.630860880136	0.268402099609375
839.730860879883	0.268310546875
839.830860879631	0.26824951171875
839.930860879378	0.268157958984375
840.030860879126	0.268096923828125
840.130860878873	0.26800537109375
840.230860878621	0.267913818359375
840.330860878369	0.267852783203125
840.430860878116	0.26776123046875
840.530860877864	0.2677001953125
840.630860877611	0.267608642578125
840.730860877359	0.267547607421875
840.830860877106	0.267486572265625
840.930860876854	0.26739501953125
841.030860876601	0.267333984375
841.130860876349	0.267242431640625
841.230860876096	0.267181396484375
841.330860875844	0.26708984375
841.430860875591	0.26702880859375
841.530860875339	0.2669677734375
841.630860875086	0.266876220703125
841.730860874834	0.266815185546875
841.830860874581	0.266754150390625
841.930860874329	0.26666259765625
842.030860874076	0.2666015625
842.130860873824	0.26654052734375
842.230860873571	0.2664794921875
842.330860873319	0.266387939453125
842.430860873067	0.266326904296875
842.530860872814	0.266265869140625
842.630860872562	0.266204833984375
842.730860872309	0.26611328125
842.830860872057	0.26605224609375
842.930860871804	0.2659912109375
843.030860871552	0.26593017578125
843.130860871299	0.265869140625
843.230860871047	0.26580810546875
843.330860870794	0.2657470703125
843.430860870542	0.265655517578125
843.530860870289	0.265594482421875
843.630860870037	0.265533447265625
843.730860869784	0.265472412109375
843.830860869532	0.265411376953125
843.930860869279	0.265350341796875
844.030860869027	0.265289306640625
844.130860868774	0.265228271484375
844.230860868522	0.265167236328125
844.33086086827	0.265106201171875
844.430860868017	0.265045166015625
844.530860867765	0.264984130859375
844.630860867512	0.264923095703125
844.73086086726	0.264862060546875
844.830860867007	0.264801025390625
844.930860866755	0.264739990234375
845.030860866502	0.264678955078125
845.13086086625	0.264617919921875
845.230860865997	0.264556884765625
845.330860865745	0.264495849609375
845.430860865492	0.26446533203125
845.53086086524	0.264404296875
845.630860864987	0.26434326171875
845.730860864735	0.2642822265625
845.830860864482	0.26422119140625
845.93086086423	0.26416015625
846.030860863977	0.26409912109375
846.130860863725	0.264068603515625
846.230860863472	0.264007568359375
846.33086086322	0.263946533203125
846.430860862968	0.263885498046875
846.530860862715	0.263824462890625
846.630860862463	0.2637939453125
846.73086086221	0.26373291015625
846.830860861958	0.263671875
846.930860861705	0.26361083984375
847.030860861453	0.263580322265625
847.1308608612	0.263519287109375
847.230860860948	0.263458251953125
847.330860860695	0.263427734375
847.430860860443	0.26336669921875
847.53086086019	0.2633056640625
847.630860859938	0.26324462890625
847.730860859685	0.263214111328125
847.830860859433	0.263153076171875
847.93086085918	0.263092041015625
848.030860858928	0.2630615234375
848.130860858675	0.26300048828125
848.230860858423	0.262969970703125
848.33086085817	0.262908935546875
848.430860857918	0.262847900390625
848.530860857666	0.2628173828125
848.630860857413	0.26275634765625
848.730860857161	0.2626953125
848.830860856908	0.262664794921875
848.930860856656	0.262603759765625
849.030860856403	0.2625732421875
849.130860856151	0.26251220703125
849.230860855898	0.262481689453125
849.330860855646	0.262420654296875
849.430860855393	0.26239013671875
849.530860855141	0.2623291015625
849.630860854888	0.262298583984375
849.730860854636	0.262237548828125
849.830860854383	0.262176513671875
849.930860854131	0.26214599609375
850.030860853878	0.2620849609375
850.130860853626	0.262054443359375
850.230860853373	0.26202392578125
850.330860853121	0.261962890625
850.430860852868	0.261932373046875
850.530860852616	0.261871337890625
850.630860852364	0.2618408203125
850.730860852111	0.26177978515625
850.830860851859	0.261749267578125
850.930860851606	0.261688232421875
851.030860851354	0.26165771484375
851.130860851101	0.261627197265625
851.230860850849	0.261566162109375
851.330860850596	0.26153564453125
851.430860850344	0.261474609375
851.530860850091	0.261444091796875
851.630860849839	0.26141357421875
851.730860849586	0.2613525390625
851.830860849334	0.261322021484375
851.930860849081	0.261260986328125
852.030860848829	0.26123046875
852.130860848576	0.261199951171875
852.230860848324	0.261138916015625
852.330860848071	0.2611083984375
852.430860847819	0.261077880859375
852.530860847566	0.261016845703125
852.630860847314	0.260986328125
852.730860847062	0.260955810546875
852.830860846809	0.26092529296875
852.930860846557	0.2608642578125
853.030860846304	0.260833740234375
853.130860846052	0.26080322265625
853.230860845799	0.2607421875
853.330860845547	0.260711669921875
853.430860845294	0.26068115234375
853.530860845042	0.260650634765625
853.630860844789	0.260589599609375
853.730860844537	0.26055908203125
853.830860844284	0.260528564453125
853.930860844032	0.260498046875
854.030860843779	0.26043701171875
854.130860843527	0.260406494140625
854.230860843274	0.2603759765625
854.330860843022	0.260345458984375
854.430860842769	0.26031494140625
854.530860842517	0.26025390625
854.630860842265	0.260223388671875
854.730860842012	0.26019287109375
854.83086084176	0.260162353515625
854.930860841507	0.2601318359375
855.030860841255	0.26007080078125
855.130860841002	0.260040283203125
855.23086084075	0.260009765625
855.330860840497	0.259979248046875
855.430860840245	0.25994873046875
855.530860839992	0.259918212890625
855.63086083974	0.259857177734375
855.730860839487	0.25982666015625
855.830860839235	0.259796142578125
855.930860838982	0.259765625
856.03086083873	0.259735107421875
856.130860838477	0.25970458984375
856.230860838225	0.259674072265625
856.330860837972	0.2596435546875
856.43086083772	0.25958251953125
856.530860837467	0.259552001953125
856.630860837215	0.259521484375
856.730860836963	0.259490966796875
856.83086083671	0.25946044921875
856.930860836458	0.259429931640625
857.030860836205	0.2593994140625
857.130860835953	0.259368896484375
857.2308608357	0.25933837890625
857.330860835448	0.259307861328125
857.430860835195	0.25927734375
857.530860834943	0.259246826171875
857.63086083469	0.25921630859375
857.730860834438	0.259185791015625
857.830860834185	0.2591552734375
857.930860833933	0.259124755859375
858.03086083368	0.259063720703125
858.130860833428	0.259033203125
858.230860833175	0.259002685546875
858.330860832923	0.25897216796875
858.43086083267	0.258941650390625
858.530860832418	0.2589111328125
858.630860832165	0.258880615234375
858.730860831913	0.25885009765625
858.830860831661	0.258819580078125
858.930860831408	0.2587890625
859.030860831156	0.258758544921875
859.130860830903	0.25872802734375
859.230860830651	0.258697509765625
859.330860830398	0.258697509765625
859.430860830146	0.258636474609375
859.530860829893	0.258636474609375
859.630860829641	0.25860595703125
859.730860829388	0.258575439453125
859.830860829136	0.258544921875
859.930860828883	0.258514404296875
860.030860828631	0.25848388671875
860.130860828378	0.258453369140625
860.230860828126	0.2584228515625
860.330860827873	0.258392333984375
860.430860827621	0.25836181640625
860.530860827368	0.258331298828125
860.630860827116	0.25830078125
860.730860826863	0.258270263671875
860.830860826611	0.25823974609375
860.930860826359	0.25823974609375
861.030860826106	0.258209228515625
861.130860825854	0.2581787109375
861.230860825601	0.258148193359375
861.330860825349	0.25811767578125
861.430860825096	0.258087158203125
861.530860824844	0.258056640625
861.630860824591	0.258026123046875
861.730860824339	0.25799560546875
861.830860824086	0.257965087890625
861.930860823834	0.257965087890625
862.030860823581	0.2579345703125
862.130860823329	0.257904052734375
862.230860823076	0.25787353515625
862.330860822824	0.257843017578125
862.430860822571	0.2578125
862.530860822319	0.2578125
862.630860822066	0.257781982421875
862.730860821814	0.25775146484375
862.830860821561	0.257720947265625
862.930860821309	0.2576904296875
863.030860821057	0.257659912109375
863.130860820804	0.257659912109375
863.230860820552	0.25762939453125
863.330860820299	0.257598876953125
863.430860820047	0.257568359375
863.530860819794	0.257537841796875
863.630860819542	0.25750732421875
863.730860819289	0.25750732421875
863.830860819037	0.257476806640625
863.930860818784	0.2574462890625
864.030860818532	0.257415771484375
864.130860818279	0.25738525390625
864.230860818027	0.25738525390625
864.330860817774	0.257354736328125
864.430860817522	0.25732421875
864.530860817269	0.257293701171875
864.630860817017	0.25726318359375
864.730860816764	0.25726318359375
864.830860816512	0.257232666015625
864.93086081626	0.2572021484375
865.030860816007	0.257171630859375
865.130860815755	0.257171630859375
865.230860815502	0.25714111328125
865.33086081525	0.257110595703125
865.430860814997	0.257080078125
865.530860814745	0.257080078125
865.630860814492	0.257049560546875
865.73086081424	0.25701904296875
865.830860813987	0.256988525390625
865.930860813735	0.256988525390625
866.030860813482	0.2569580078125
866.13086081323	0.256927490234375
866.230860812977	0.25689697265625
866.330860812725	0.25689697265625
866.430860812472	0.256866455078125
866.53086081222	0.2568359375
866.630860811967	0.256805419921875
866.730860811715	0.256805419921875
866.830860811462	0.25677490234375
866.93086081121	0.256744384765625
867.030860810958	0.2567138671875
867.130860810705	0.2567138671875
867.230860810453	0.256683349609375
867.3308608102	0.25665283203125
867.430860809948	0.25665283203125
867.530860809695	0.256622314453125
867.630860809443	0.256591796875
867.73086080919	0.256591796875
867.830860808938	0.256561279296875
867.930860808685	0.25653076171875
868.030860808433	0.25653076171875
868.13086080818	0.256500244140625
868.230860807928	0.2564697265625
868.330860807675	0.2564697265625
868.430860807423	0.256439208984375
868.53086080717	0.25640869140625
868.630860806918	0.25640869140625
868.730860806665	0.256378173828125
868.830860806413	0.25634765625
868.93086080616	0.25634765625
869.030860805908	0.256317138671875
869.130860805656	0.25628662109375
869.230860805403	0.25628662109375
869.330860805151	0.256256103515625
869.430860804898	0.2562255859375
869.530860804646	0.2562255859375
869.630860804393	0.256195068359375
869.730860804141	0.25616455078125
869.830860803888	0.25616455078125
869.930860803636	0.256134033203125
870.030860803383	0.256103515625
870.130860803131	0.256103515625
870.230860802878	0.256072998046875
870.330860802626	0.256072998046875
870.430860802373	0.25604248046875
870.530860802121	0.256011962890625
870.630860801868	0.256011962890625
870.730860801616	0.2559814453125
870.830860801363	0.255950927734375
870.930860801111	0.255950927734375
871.030860800858	0.25592041015625
871.130860800606	0.25592041015625
871.230860800354	0.255889892578125
871.330860800101	0.255859375
871.430860799849	0.255859375
871.530860799596	0.255828857421875
871.630860799344	0.25579833984375
871.730860799091	0.25579833984375
871.830860798839	0.255767822265625
871.930860798586	0.255767822265625
872.030860798334	0.2557373046875
872.130860798081	0.2557373046875
872.230860797829	0.255706787109375
872.330860797576	0.25567626953125
872.430860797324	0.25567626953125
872.530860797071	0.255645751953125
872.630860796819	0.255645751953125
872.730860796566	0.255615234375
872.830860796314	0.255615234375
872.930860796061	0.255584716796875
873.030860795809	0.25555419921875
873.130860795556	0.25555419921875
873.230860795304	0.255523681640625
873.330860795052	0.255523681640625
873.430860794799	0.2554931640625
873.530860794547	0.255462646484375
873.630860794294	0.255462646484375
873.730860794042	0.25543212890625
873.830860793789	0.25543212890625
873.930860793537	0.255401611328125
874.030860793284	0.255401611328125
874.130860793032	0.25537109375
874.230860792779	0.25537109375
874.330860792527	0.255340576171875
874.430860792274	0.255340576171875
874.530860792022	0.25531005859375
874.630860791769	0.25531005859375
874.730860791517	0.255279541015625
874.830860791264	0.2552490234375
874.930860791012	0.2552490234375
875.030860790759	0.255218505859375
875.130860790507	0.255218505859375
875.230860790255	0.25518798828125
875.330860790002	0.25518798828125
875.43086078975	0.255157470703125
875.530860789497	0.255157470703125
875.630860789245	0.255126953125
875.730860788992	0.255126953125
875.83086078874	0.255096435546875
875.930860788487	0.255096435546875
876.030860788235	0.25506591796875
876.130860787982	0.25506591796875
876.23086078773	0.255035400390625
876.330860787477	0.255035400390625
876.430860787225	0.2550048828125
876.530860786972	0.2550048828125
876.63086078672	0.254974365234375
876.730860786467	0.254974365234375
876.830860786215	0.25494384765625
876.930860785962	0.25494384765625
877.03086078571	0.254913330078125
877.130860785457	0.254913330078125
877.230860785205	0.2548828125
877.330860784953	0.2548828125
877.4308607847	0.254852294921875
877.530860784448	0.254852294921875
877.630860784195	0.25482177734375
877.730860783943	0.25482177734375
877.83086078369	0.254791259765625
877.930860783438	0.254791259765625
878.030860783185	0.2547607421875
878.130860782933	0.2547607421875
878.23086078268	0.254730224609375
878.330860782428	0.254730224609375
878.430860782175	0.25469970703125
878.530860781923	0.25469970703125
878.63086078167	0.25469970703125
878.730860781418	0.254669189453125
878.830860781165	0.254669189453125
878.930860780913	0.254638671875
879.03086078066	0.254638671875
879.130860780408	0.254608154296875
879.230860780155	0.254608154296875
879.330860779903	0.25457763671875
879.430860779651	0.25457763671875
879.530860779398	0.254547119140625
879.630860779146	0.254547119140625
879.730860778893	0.2545166015625
879.830860778641	0.2545166015625
879.930860778388	0.2545166015625
880.030860778136	0.254486083984375
880.130860777883	0.254486083984375
880.230860777631	0.25445556640625
880.330860777378	0.25445556640625
880.430860777126	0.254425048828125
880.530860776873	0.254425048828125
880.630860776621	0.254425048828125
880.730860776368	0.25439453125
880.830860776116	0.25439453125
880.930860775863	0.254364013671875
881.030860775611	0.254364013671875
881.130860775358	0.25433349609375
881.230860775106	0.25433349609375
881.330860774853	0.254302978515625
881.430860774601	0.254302978515625
881.530860774349	0.254302978515625
881.630860774096	0.2542724609375
881.730860773844	0.2542724609375
881.830860773591	0.254241943359375
881.930860773339	0.254241943359375
882.030860773086	0.254241943359375
882.130860772834	0.25421142578125
882.230860772581	0.25421142578125
882.330860772329	0.254180908203125
882.430860772076	0.254180908203125
882.530860771824	0.254150390625
882.630860771571	0.254150390625
882.730860771319	0.254150390625
882.830860771066	0.254119873046875
882.930860770814	0.254119873046875
883.030860770561	0.25408935546875
883.130860770309	0.25408935546875
883.230860770056	0.25408935546875
883.330860769804	0.254058837890625
883.430860769551	0.254058837890625
883.530860769299	0.2540283203125
883.630860769047	0.2540283203125
883.730860768794	0.2540283203125
883.830860768542	0.253997802734375
883.930860768289	0.253997802734375
884.030860768037	0.25396728515625
884.130860767784	0.25396728515625
884.230860767532	0.25396728515625
884.330860767279	0.253936767578125
884.430860767027	0.253936767578125
884.530860766774	0.25390625
884.630860766522	0.25390625
884.730860766269	0.25390625
884.830860766017	0.253875732421875
884.930860765764	0.253875732421875
885.030860765512	0.253875732421875
885.130860765259	0.25384521484375
885.230860765007	0.25384521484375
885.330860764754	0.253814697265625
885.430860764502	0.253814697265625
885.53086076425	0.253814697265625
885.630860763997	0.2537841796875
885.730860763745	0.2537841796875
885.830860763492	0.2537841796875
885.93086076324	0.253753662109375
886.030860762987	0.253753662109375
886.130860762735	0.253753662109375
886.230860762482	0.25372314453125
886.33086076223	0.25372314453125
886.430860761977	0.253692626953125
886.530860761725	0.253692626953125
886.630860761472	0.253692626953125
886.73086076122	0.253662109375
886.830860760967	0.253662109375
886.930860760715	0.253662109375
887.030860760462	0.253631591796875
887.13086076021	0.253631591796875
887.230860759957	0.253631591796875
887.330860759705	0.25360107421875
887.430860759452	0.25360107421875
887.5308607592	0.25360107421875
887.630860758948	0.253570556640625
887.730860758695	0.253570556640625
887.830860758443	0.253570556640625
887.93086075819	0.2535400390625
888.030860757938	0.2535400390625
888.130860757685	0.253509521484375
888.230860757433	0.253509521484375
888.33086075718	0.253509521484375
888.430860756928	0.25347900390625
888.530860756675	0.25347900390625
888.630860756423	0.25347900390625
888.73086075617	0.253448486328125
888.830860755918	0.253448486328125
888.930860755665	0.253448486328125
889.030860755413	0.253448486328125
889.13086075516	0.25341796875
889.230860754908	0.25341796875
889.330860754655	0.253387451171875
889.430860754403	0.253387451171875
889.53086075415	0.253387451171875
889.630860753898	0.25335693359375
889.730860753646	0.25335693359375
889.830860753393	0.25335693359375
889.930860753141	0.253326416015625
890.030860752888	0.253326416015625
890.130860752636	0.253326416015625
890.230860752383	0.253326416015625
890.330860752131	0.2532958984375
890.430860751878	0.2532958984375
890.530860751626	0.2532958984375
890.630860751373	0.253265380859375
890.730860751121	0.253265380859375
890.830860750868	0.253265380859375
890.930860750616	0.25323486328125
891.030860750363	0.25323486328125
891.130860750111	0.25323486328125
891.230860749858	0.253204345703125
891.330860749606	0.253204345703125
891.430860749353	0.253204345703125
891.530860749101	0.253173828125
891.630860748848	0.253173828125
891.730860748596	0.253173828125
891.830860748344	0.253173828125
891.930860748091	0.253143310546875
892.030860747839	0.253143310546875
892.130860747586	0.253143310546875
892.230860747334	0.25311279296875
892.330860747081	0.25311279296875
892.430860746829	0.25311279296875
892.530860746576	0.25311279296875
892.630860746324	0.253082275390625
892.730860746071	0.253082275390625
892.830860745819	0.253082275390625
892.930860745566	0.2530517578125
893.030860745314	0.2530517578125
893.130860745061	0.2530517578125
893.230860744809	0.253021240234375
893.330860744556	0.253021240234375
893.430860744304	0.253021240234375
893.530860744051	0.253021240234375
893.630860743799	0.25299072265625
893.730860743546	0.25299072265625
893.830860743294	0.25299072265625
893.930860743042	0.252960205078125
894.030860742789	0.252960205078125
894.130860742537	0.252960205078125
894.230860742284	0.252960205078125
894.330860742032	0.2529296875
894.430860741779	0.2529296875
894.530860741527	0.2529296875
894.630860741274	0.252899169921875
894.730860741022	0.252899169921875
894.830860740769	0.252899169921875
894.930860740517	0.252899169921875
895.030860740264	0.25286865234375
895.130860740012	0.25286865234375
895.230860739759	0.25286865234375
895.330860739507	0.25286865234375
895.430860739254	0.252838134765625
895.530860739002	0.252838134765625
895.630860738749	0.252838134765625
895.730860738497	0.252838134765625
895.830860738245	0.2528076171875
895.930860737992	0.2528076171875
896.03086073774	0.2528076171875
896.130860737487	0.252777099609375
896.230860737235	0.252777099609375
896.330860736982	0.252777099609375
896.43086073673	0.252777099609375
896.530860736477	0.25274658203125
896.630860736225	0.25274658203125
896.730860735972	0.25274658203125
896.83086073572	0.25274658203125
896.930860735467	0.252716064453125
897.030860735215	0.252716064453125
897.130860734962	0.252716064453125
897.23086073471	0.252716064453125
897.330860734457	0.252685546875
897.430860734205	0.252685546875
897.530860733952	0.252685546875
897.6308607337	0.252685546875
897.730860733447	0.252655029296875
897.830860733195	0.252655029296875
897.930860732943	0.252655029296875
898.03086073269	0.252655029296875
898.130860732438	0.25262451171875
898.230860732185	0.25262451171875
898.330860731933	0.25262451171875
898.43086073168	0.25262451171875
898.530860731428	0.252593994140625
898.630860731175	0.252593994140625
898.730860730923	0.252593994140625
898.83086073067	0.252593994140625
898.930860730418	0.2525634765625
899.030860730165	0.2525634765625
899.130860729913	0.2525634765625
899.23086072966	0.2525634765625
899.330860729408	0.2525634765625
899.430860729155	0.252532958984375
899.530860728903	0.252532958984375
899.63086072865	0.252532958984375
899.730860728398	0.25250244140625
899.830860728145	0.25250244140625
899.930860727893	0.25250244140625
900.030860727641	0.25250244140625
900.130860727388	0.25250244140625
900.230860727136	0.252471923828125
900.330860726883	0.252471923828125
900.430860726631	0.252471923828125
900.530860726378	0.252471923828125
900.630860726126	0.25244140625
900.730860725873	0.25244140625
900.830860725621	0.25244140625
900.930860725368	0.25244140625
901.030860725116	0.252410888671875
901.130860724863	0.252410888671875
901.230860724611	0.252410888671875
901.330860724358	0.252410888671875
901.430860724106	0.252410888671875
901.530860723853	0.25238037109375
901.630860723601	0.25238037109375
901.730860723348	0.25238037109375
901.830860723096	0.25238037109375
901.930860722843	0.252349853515625
902.030860722591	0.252349853515625
902.130860722339	0.252349853515625
902.230860722086	0.252349853515625
902.330860721834	0.252349853515625
902.430860721581	0.2523193359375
902.530860721329	0.2523193359375
902.630860721076	0.2523193359375
902.730860720824	0.2523193359375
902.830860720571	0.252288818359375
902.930860720319	0.252288818359375
903.030860720066	0.252288818359375
903.130860719814	0.252288818359375
903.230860719561	0.252288818359375
903.330860719309	0.25225830078125
903.430860719056	0.25225830078125
903.530860718804	0.25225830078125
903.630860718551	0.25225830078125
903.730860718299	0.25225830078125
903.830860718046	0.252227783203125
903.930860717794	0.252227783203125
904.030860717541	0.252227783203125
904.130860717289	0.252227783203125
904.230860717037	0.252227783203125
904.330860716784	0.252197265625
904.430860716532	0.252197265625
904.530860716279	0.252197265625
904.630860716027	0.252197265625
904.730860715774	0.252166748046875
904.830860715522	0.252166748046875
904.930860715269	0.252166748046875
905.030860715017	0.252166748046875
905.130860714764	0.252166748046875
905.230860714512	0.25213623046875
905.330860714259	0.25213623046875
905.430860714007	0.25213623046875
905.530860713754	0.25213623046875
905.630860713502	0.25213623046875
905.730860713249	0.25213623046875
905.830860712997	0.252105712890625
905.930860712744	0.252105712890625
906.030860712492	0.252105712890625
906.13086071224	0.252105712890625
906.230860711987	0.252105712890625
906.330860711735	0.2520751953125
906.430860711482	0.2520751953125
906.53086071123	0.2520751953125
906.630860710977	0.2520751953125
906.730860710725	0.2520751953125
906.830860710472	0.252044677734375
906.93086071022	0.252044677734375
907.030860709967	0.252044677734375
907.130860709715	0.252044677734375
907.230860709462	0.252044677734375
907.33086070921	0.252044677734375
907.430860708957	0.25201416015625
907.530860708705	0.25201416015625
907.630860708452	0.25201416015625
907.7308607082	0.25201416015625
907.830860707947	0.25201416015625
907.930860707695	0.251983642578125
908.030860707442	0.251983642578125
908.13086070719	0.251983642578125
908.230860706938	0.251983642578125
908.330860706685	0.251983642578125
908.430860706433	0.251953125
908.53086070618	0.251953125
908.630860705928	0.251953125
908.730860705675	0.251953125
908.830860705423	0.251953125
908.93086070517	0.251953125
909.030860704918	0.251922607421875
909.130860704665	0.251922607421875
909.230860704413	0.251922607421875
909.33086070416	0.251922607421875
909.430860703908	0.251922607421875
909.530860703655	0.25189208984375
909.630860703403	0.25189208984375
909.73086070315	0.25189208984375
909.830860702898	0.25189208984375
909.930860702645	0.25189208984375
910.030860702393	0.25189208984375
910.13086070214	0.251861572265625
910.230860701888	0.251861572265625
910.330860701636	0.251861572265625
910.430860701383	0.251861572265625
910.530860701131	0.251861572265625
910.630860700878	0.251861572265625
910.730860700626	0.2518310546875
910.830860700373	0.2518310546875
910.930860700121	0.2518310546875
911.030860699868	0.2518310546875
911.130860699616	0.2518310546875
911.230860699363	0.2518310546875
911.330860699111	0.251800537109375
911.430860698858	0.251800537109375
911.530860698606	0.251800537109375
911.630860698353	0.251800537109375
911.730860698101	0.251800537109375
911.830860697848	0.251800537109375
911.930860697596	0.25177001953125
912.030860697343	0.25177001953125
912.130860697091	0.25177001953125
912.230860696838	0.25177001953125
912.330860696586	0.25177001953125
912.430860696334	0.25177001953125
912.530860696081	0.251739501953125
912.630860695829	0.251739501953125
912.730860695576	0.251739501953125
912.830860695324	0.251739501953125
912.930860695071	0.251739501953125
913.030860694819	0.251739501953125
913.130860694566	0.251739501953125
913.230860694314	0.251708984375
913.330860694061	0.251708984375
913.430860693809	0.251708984375
913.530860693556	0.251708984375
913.630860693304	0.251708984375
913.730860693051	0.251708984375
913.830860692799	0.251678466796875
913.930860692546	0.251678466796875
914.030860692294	0.251678466796875
914.130860692041	0.251678466796875
914.230860691789	0.251678466796875
914.330860691536	0.251678466796875
914.430860691284	0.251678466796875
914.530860691032	0.25164794921875
914.630860690779	0.25164794921875
914.730860690527	0.25164794921875
914.830860690274	0.25164794921875
914.930860690022	0.25164794921875
915.030860689769	0.25164794921875
915.130860689517	0.25164794921875
915.230860689264	0.251617431640625
915.330860689012	0.251617431640625
915.430860688759	0.251617431640625
915.530860688507	0.251617431640625
915.630860688254	0.251617431640625
915.730860688002	0.251617431640625
915.830860687749	0.251617431640625
915.930860687497	0.2515869140625
916.030860687244	0.2515869140625
916.130860686992	0.2515869140625
916.230860686739	0.2515869140625
916.330860686487	0.2515869140625
916.430860686235	0.2515869140625
916.530860685982	0.2515869140625
916.63086068573	0.251556396484375
916.730860685477	0.251556396484375
916.830860685225	0.251556396484375
916.930860684972	0.251556396484375
917.03086068472	0.251556396484375
917.130860684467	0.251556396484375
917.230860684215	0.251556396484375
917.330860683962	0.25152587890625
917.43086068371	0.25152587890625
917.530860683457	0.25152587890625
917.630860683205	0.25152587890625
917.730860682952	0.25152587890625
917.8308606827	0.25152587890625
917.930860682447	0.25152587890625
918.030860682195	0.251495361328125
918.130860681942	0.251495361328125
918.23086068169	0.251495361328125
918.330860681437	0.251495361328125
918.430860681185	0.251495361328125
918.530860680933	0.251495361328125
918.63086068068	0.251495361328125
918.730860680428	0.25146484375
918.830860680175	0.25146484375
918.930860679923	0.25146484375
919.03086067967	0.25146484375
919.130860679418	0.25146484375
919.230860679165	0.25146484375
919.330860678913	0.25146484375
919.43086067866	0.25146484375
919.530860678408	0.25146484375
919.630860678155	0.251434326171875
919.730860677903	0.251434326171875
919.83086067765	0.251434326171875
919.930860677398	0.251434326171875
920.030860677145	0.251434326171875
920.130860676893	0.251434326171875
920.23086067664	0.251434326171875
920.330860676388	0.25140380859375
920.430860676135	0.25140380859375
920.530860675883	0.25140380859375
920.630860675631	0.25140380859375
920.730860675378	0.25140380859375
920.830860675126	0.25140380859375
920.930860674873	0.25140380859375
921.030860674621	0.25140380859375
921.130860674368	0.25140380859375
921.230860674116	0.251373291015625
921.330860673863	0.251373291015625
921.430860673611	0.251373291015625
921.530860673358	0.251373291015625
921.630860673106	0.251373291015625
921.730860672853	0.251373291015625
921.830860672601	0.251373291015625
921.930860672348	0.2513427734375
922.030860672096	0.2513427734375
922.130860671843	0.2513427734375
922.230860671591	0.2513427734375
922.330860671338	0.2513427734375
922.430860671086	0.2513427734375
922.530860670833	0.2513427734375
922.630860670581	0.2513427734375
922.730860670329	0.2513427734375
922.830860670076	0.251312255859375
922.930860669824	0.251312255859375
923.030860669571	0.251312255859375
923.130860669319	0.251312255859375
923.230860669066	0.251312255859375
923.330860668814	0.251312255859375
923.430860668561	0.251312255859375
923.530860668309	0.251312255859375
923.630860668056	0.251312255859375
923.730860667804	0.251312255859375
923.830860667551	0.25128173828125
923.930860667299	0.25128173828125
924.030860667046	0.25128173828125
924.130860666794	0.25128173828125
