Time (s)	WE(1).Potential (V)
8122.47848349271	0.50994873046875
8123.47848349019	0.50048828125
8124.47848348766	0.492645263671875
8125.47848348514	0.48663330078125
8126.47848348261	0.481903076171875
8127.47848348009	0.478302001953125
8128.47848347756	0.4755859375
8129.47848347504	0.47357177734375
8130.47848347252	0.472137451171875
8131.47848346999	0.47119140625
8132.47848346747	0.4705810546875
8133.47848346494	0.47021484375
8134.47848346242	0.47015380859375
8135.47848345989	0.47021484375
8136.47848345737	0.47039794921875
8137.47848345484	0.470703125
8138.47848345232	0.471099853515625
8139.47848344979	0.4715576171875
8140.47848344727	0.4720458984375
8141.47848344474	0.472564697265625
8142.47848344222	0.473114013671875
8143.47848343969	0.473663330078125
8144.47848343717	0.4742431640625
8145.47848343464	0.474822998046875
8146.47848343212	0.47540283203125
8147.47848342959	0.4759521484375
8148.47848342707	0.47650146484375
8149.47848342454	0.477020263671875
8150.47848342202	0.477569580078125
8151.4784834195	0.478057861328125
8152.47848341697	0.478546142578125
8153.47848341445	0.47900390625
8154.47848341192	0.47943115234375
8155.4784834094	0.4798583984375
8156.47848340687	0.48028564453125
8157.47848340435	0.48065185546875
8158.47848340182	0.481048583984375
8159.4784833993	0.4814453125
8160.47848339677	0.4818115234375
8161.47848339425	0.482147216796875
8162.47848339172	0.48248291015625
8163.4784833892	0.4827880859375
8164.47848338667	0.48309326171875
8165.47848338415	0.4833984375
8166.47848338162	0.48370361328125
8167.4784833791	0.483978271484375
8168.47848337657	0.48419189453125
8169.47848337405	0.48443603515625
8170.47848337152	0.484649658203125
8171.478483369	0.484893798828125
8172.47848336648	0.485076904296875
8173.47848336395	0.485260009765625
8174.47848336143	0.4854736328125
8175.4784833589	0.48565673828125
8176.47848335638	0.48583984375
8177.47848335385	0.48602294921875
8178.47848335133	0.486175537109375
8179.4784833488	0.486328125
8180.47848334628	0.48651123046875
8181.47848334375	0.48663330078125
8182.47848334123	0.486785888671875
8183.4784833387	0.4869384765625
8184.47848333618	0.487091064453125
8185.47848333365	0.4873046875
8186.47848333113	0.48748779296875
8187.4784833286	0.487701416015625
8188.47848332608	0.487884521484375
8189.47848332355	0.488067626953125
8190.47848332103	0.48822021484375
8191.4784833185	0.488372802734375
8192.47848331598	0.488494873046875
8193.47848331345	0.4886474609375
8194.47848331093	0.48876953125
8195.4784833084	0.4888916015625
8196.47848330588	0.489013671875
8197.47848330336	0.489105224609375
8198.47848330083	0.48919677734375
8199.47848329831	0.489288330078125
8200.47848329578	0.4893798828125
8201.47848329326	0.489471435546875
8202.47848329073	0.489532470703125
8203.47848328821	0.489593505859375
8204.47848328568	0.48968505859375
8205.47848328316	0.48974609375
8206.47848328063	0.48980712890625
8207.47848327811	0.489898681640625
8208.47848327558	0.489959716796875
8209.47848327306	0.490020751953125
8210.47848327053	0.4901123046875
8211.47848326801	0.4901123046875
8212.47848326548	0.49017333984375
8213.47848326296	0.490203857421875
8214.47848326043	0.490264892578125
8215.47848325791	0.490325927734375
8216.47848325539	0.4903564453125
8217.47848325286	0.490386962890625
8218.47848325034	0.49041748046875
8219.47848324781	0.490447998046875
8220.47848324529	0.490478515625
8221.47848324276	0.490478515625
8222.47848324024	0.490509033203125
8223.47848323771	0.49053955078125
8224.47848323519	0.490570068359375
8225.47848323266	0.4906005859375
8226.47848323014	0.4906005859375
8227.47848322761	0.490631103515625
8228.47848322509	0.490631103515625
8229.47848322256	0.49066162109375
8230.47848322004	0.490692138671875
8231.47848321751	0.490692138671875
8232.47848321499	0.49072265625
8233.47848321246	0.49078369140625
8234.47848320994	0.4908447265625
8235.47848320741	0.49090576171875
8236.47848320489	0.490936279296875
8237.47848320237	0.490997314453125
8238.47848319984	0.49102783203125
8239.47848319732	0.491058349609375
8240.47848319479	0.4910888671875
8241.47848319227	0.4910888671875
8242.47848318974	0.491119384765625
8243.47848318722	0.491119384765625
8244.47848318469	0.491180419921875
8245.47848318217	0.4912109375
8246.47848317964	0.49127197265625
8247.47848317712	0.491302490234375
8248.47848317459	0.4913330078125
8249.47848317207	0.491363525390625
8250.47848316954	0.49139404296875
8251.47848316702	0.49139404296875
8252.47848316449	0.491424560546875
8253.47848316197	0.491424560546875
8254.47848315944	0.491455078125
8255.47848315692	0.491485595703125
8256.47848315439	0.49151611328125
8257.47848315187	0.49151611328125
8258.47848314935	0.49151611328125
8259.47848314682	0.491546630859375
8260.4784831443	0.4915771484375
8261.47848314177	0.491546630859375
8262.47848313925	0.491607666015625
8263.47848313672	0.49163818359375
8264.4784831342	0.491668701171875
8265.47848313167	0.49169921875
8266.47848312915	0.491546630859375
8267.47848312662	0.49169921875
8268.4784831241	0.491729736328125
8269.47848312157	0.491729736328125
8270.47848311905	0.49176025390625
8271.47848311652	0.49176025390625
8272.478483114	0.491790771484375
8273.47848311147	0.491790771484375
8274.47848310895	0.4918212890625
8275.47848310642	0.491851806640625
8276.4784831039	0.491851806640625
8277.47848310137	0.491912841796875
8278.47848309885	0.491943359375
8279.47848309633	0.491973876953125
8280.4784830938	0.492034912109375
8281.47848309128	0.4920654296875
8282.47848308875	0.492095947265625
8283.47848308623	0.4920654296875
8284.4784830837	0.4921875
8285.47848308118	0.492218017578125
8286.47848307865	0.49224853515625
8287.47848307613	0.49224853515625
8288.4784830736	0.492279052734375
8289.47848307108	0.4923095703125
8290.47848306855	0.492340087890625
8291.47848306603	0.492340087890625
8292.4784830635	0.492340087890625
8293.47848306098	0.492340087890625
8294.47848305845	0.49237060546875
8295.47848305593	0.49237060546875
8296.4784830534	0.49237060546875
8297.47848305088	0.49237060546875
8298.47848304835	0.49237060546875
8299.47848304583	0.492340087890625
8300.47848304331	0.492340087890625
8301.47848304078	0.4923095703125
