Time (s)	WE(1).Potential (V)
3.48176899120938	0.51605224609375
4.48176898868462	0.51605224609375
5.48176898615986	0.51605224609375
6.48176898363511	0.51605224609375
7.48176898111035	0.51605224609375
8.48176897858559	0.51605224609375
9.48176897606083	0.51605224609375
10.4817689735361	0.516357421875
11.4817689710113	0.516357421875
12.4817689684866	0.516357421875
13.4817689659618	0.516357421875
14.481768963437	0.516357421875
15.4817689609123	0.516357421875
16.4817689583875	0.51666259765625
17.4817689558628	0.51666259765625
18.481768953338	0.51666259765625
19.4817689508133	0.51666259765625
20.4817689482885	0.51666259765625
21.4817689457637	0.51666259765625
22.481768943239	0.51666259765625
23.4817689407142	0.51666259765625
24.4817689381895	0.51666259765625
25.4817689356647	0.5169677734375
26.48176893314	0.5169677734375
27.4817689306152	0.5169677734375
28.4817689280904	0.5169677734375
29.4817689255657	0.5169677734375
30.4817689230409	0.51727294921875
31.4817689205162	0.51727294921875
32.4817689179914	0.51727294921875
33.4817689154667	0.51727294921875
34.4817689129419	0.51727294921875
35.4817689104171	0.51727294921875
36.4817689078924	0.517578125
37.4817689053676	0.517578125
38.4817689028429	0.517578125
39.4817689003181	0.517578125
40.4817688977934	0.517578125
41.4817688952686	0.517578125
42.4817688927438	0.51788330078125
43.4817688902191	0.51788330078125
44.4817688876943	0.51788330078125
45.4817688851696	0.51788330078125
46.4817688826448	0.51788330078125
47.4817688801201	0.51788330078125
48.4817688775953	0.5181884765625
49.4817688750705	0.5181884765625
50.4817688725458	0.5181884765625
51.481768870021	0.5181884765625
52.4817688674963	0.5181884765625
53.4817688649715	0.5181884765625
54.4817688624468	0.51849365234375
55.481768859922	0.51849365234375
56.4817688573972	0.51849365234375
57.4817688548725	0.51849365234375
58.4817688523477	0.51849365234375
59.481768849823	0.51849365234375
60.4817688472982	0.518798828125
61.4817688447735	0.518798828125
62.4817688422487	0.518798828125
63.4817688397239	0.518798828125
64.4817688371992	0.518798828125
65.4817688346744	0.518798828125
66.4817688321497	0.51910400390625
67.4817688296249	0.51910400390625
68.4817688271002	0.51910400390625
69.4817688245754	0.51910400390625
70.4817688220506	0.51910400390625
71.4817688195259	0.51910400390625
72.4817688170011	0.51910400390625
73.4817688144764	0.51910400390625
74.4817688119516	0.51910400390625
75.4817688094269	0.5194091796875
76.4817688069021	0.5194091796875
77.4817688043773	0.5194091796875
78.4817688018526	0.5194091796875
79.4817687993278	0.5194091796875
80.4817687968031	0.5194091796875
81.4817687942783	0.5194091796875
82.4817687917536	0.5194091796875
83.4817687892288	0.5194091796875
84.481768786704	0.5194091796875
85.4817687841793	0.5194091796875
86.4817687816545	0.5194091796875
87.4817687791298	0.5194091796875
88.481768776605	0.51971435546875
89.4817687740803	0.51971435546875
90.4817687715555	0.51971435546875
91.4817687690307	0.51971435546875
92.481768766506	0.51971435546875
93.4817687639812	0.51971435546875
94.4817687614565	0.51971435546875
95.4817687589317	0.51971435546875
96.481768756407	0.51971435546875
97.4817687538822	0.51971435546875
98.4817687513574	0.51971435546875
99.4817687488327	0.51971435546875
100.481768746308	0.51971435546875
101.481768743783	0.51971435546875
102.481768741258	0.52001953125
103.481768738734	0.52001953125
104.481768736209	0.52001953125
105.481768733684	0.52001953125
106.481768731159	0.52001953125
107.481768728635	0.52001953125
108.48176872611	0.52001953125
109.481768723585	0.52001953125
110.48176872106	0.52001953125
111.481768718536	0.52001953125
112.481768716011	0.52001953125
113.481768713486	0.52001953125
114.481768710961	0.52001953125
115.481768708437	0.52001953125
116.481768705912	0.52001953125
117.481768703387	0.52001953125
118.481768700862	0.52001953125
119.481768698338	0.52001953125
120.481768695813	0.52032470703125
121.481768693288	0.52032470703125
122.481768690763	0.52032470703125
123.481768688239	0.52032470703125
124.481768685714	0.52032470703125
125.481768683189	0.52032470703125
126.481768680664	0.52032470703125
127.481768678139	0.52032470703125
128.481768675615	0.52032470703125
129.48176867309	0.52032470703125
130.481768670565	0.52032470703125
131.48176866804	0.52032470703125
132.481768665516	0.52032470703125
133.481768662991	0.52032470703125
134.481768660466	0.52032470703125
135.481768657941	0.52032470703125
136.481768655417	0.52032470703125
137.481768652892	0.52032470703125
138.481768650367	0.52032470703125
139.481768647842	0.52032470703125
140.481768645318	0.52032470703125
141.481768642793	0.5206298828125
142.481768640268	0.5206298828125
143.481768637743	0.5206298828125
144.481768635219	0.5206298828125
145.481768632694	0.5206298828125
146.481768630169	0.5206298828125
147.481768627644	0.5206298828125
148.48176862512	0.5206298828125
149.481768622595	0.5206298828125
150.48176862007	0.5206298828125
151.481768617545	0.5206298828125
152.481768615021	0.5206298828125
153.481768612496	0.5206298828125
154.481768609971	0.52093505859375
155.481768607446	0.52093505859375
156.481768604922	0.52093505859375
157.481768602397	0.52093505859375
158.481768599872	0.52093505859375
159.481768597347	0.52093505859375
160.481768594822	0.52093505859375
161.481768592298	0.52093505859375
162.481768589773	0.52093505859375
163.481768587248	0.52093505859375
164.481768584723	0.52093505859375
165.481768582199	0.52093505859375
166.481768579674	0.521240234375
167.481768577149	0.521240234375
168.481768574624	0.521240234375
169.4817685721	0.521240234375
170.481768569575	0.521240234375
171.48176856705	0.521240234375
172.481768564525	0.521240234375
173.481768562001	0.521240234375
174.481768559476	0.521240234375
175.481768556951	0.52154541015625
176.481768554426	0.52154541015625
177.481768551902	0.52154541015625
178.481768549377	0.52154541015625
179.481768546852	0.52154541015625
180.481768544327	0.52154541015625
181.481768541803	0.52154541015625
182.481768539278	0.52154541015625
