
Potential applied (V)	WE(1).Current (A)	Time (s)
0.00244140625	9.48699951171875E-07	12.6170909681449
0.0048828125	4.532470703125E-06	12.6414909680833
0.00732421875	6.7840576171875E-06	12.6658909680217
0.009765625	9.0118408203125E-06	12.6902909679601
0.01220703125	1.12548828125E-05	12.7146909678985
0.0146484375	1.348876953125E-05	12.7390909678369
0.01708984375	1.57257080078125E-05	12.7634909677753
0.01953125	1.7962646484375E-05	12.7878909677137
0.02197265625	2.02056884765625E-05	12.8122909676521
0.0244140625	2.2442626953125E-05	12.8366909675905
0.02685546875	2.46795654296875E-05	12.8610909675289
0.029296875	2.69256591796875E-05	12.8854909674673
0.03173828125	2.9150390625E-05	12.9098909674057
0.0341796875	3.13934326171875E-05	12.9342909673441
0.03662109375	3.36395263671875E-05	12.9586909672825
0.0390625	3.58673095703125E-05	12.9830909672208
0.04150390625	3.809814453125E-05	13.0074909671592
0.0439453125	4.034423828125E-05	13.0318909670976
0.04638671875	4.2578125E-05	13.056290967036
0.048828125	4.481201171875E-05	13.0806909669744
0.05126953125	4.7052001953125E-05	13.1050909669128
0.0537109375	4.92919921875E-05	13.1294909668512
0.05615234375	5.1544189453125E-05	13.1538909667896
0.05859375	5.377197265625E-05	13.178290966728
0.06103515625	5.5999755859375E-05	13.2026909666664
0.0634765625	5.82275390625E-05	13.2270909666048
0.06591796875	6.048583984375E-05	13.2514909665432
0.068359375	6.2713623046875E-05	13.2758909664816
0.07080078125	6.4971923828125E-05	13.30029096642
0.0732421875	6.719970703125E-05	13.3246909663584
0.07568359375	6.94580078125E-05	13.3490909662968
0.078125	7.1685791015625E-05	13.3734909662352
0.08056640625	7.391357421875E-05	13.3978909661736
0.0830078125	7.6171875E-05	13.422290966112
0.08544921875	7.8399658203125E-05	13.4466909660504
0.087890625	8.062744140625E-05	13.4710909659888
0.09033203125	8.28857421875E-05	13.4954909659272
0.0927734375	8.5113525390625E-05	13.5198909658656
0.09521484375	8.734130859375E-05	13.544290965804
0.09765625	8.9599609375E-05	13.5686909657423
0.10009765625	9.1827392578125E-05	13.5930909656807
0.1025390625	9.405517578125E-05	13.6174909656191
0.10498046875	9.63134765625E-05	13.6418909655575
0.107421875	9.8541259765625E-05	13.6662909654959
0.10986328125	0.00010076904296875	13.6906909654343
0.1123046875	0.00010302734375	13.7150909653727
0.11474609375	0.000105255126953125	13.7394909653111
0.1171875	0.00010748291015625	13.7638909652495
0.11962890625	0.000109710693359375	13.7882909651879
0.1220703125	0.000111968994140625	13.8126909651263
0.12451171875	0.00011419677734375	13.8370909650647
0.126953125	0.000116455078125	13.8614909650031
0.12939453125	0.000118682861328125	13.8858909649415
0.1318359375	0.00012091064453125	13.9102909648799
0.13427734375	0.0001231689453125	13.9346909648183
0.13671875	0.0001253662109375	13.9590909647567
0.13916015625	0.00012762451171875	13.9834909646951
0.1416015625	0.000129852294921875	14.0078909646335
0.14404296875	0.000132110595703125	14.0322909645719
0.146484375	0.000134307861328125	14.0566909645103
0.14892578125	0.000136566162109375	14.0810909644487
0.1513671875	0.0001387939453125	14.1054909643871
0.15380859375	0.00014105224609375	14.1298909643255
0.15625	0.00014324951171875	14.1542909642639
0.15869140625	0.0001455078125	14.1786909642022
0.1611328125	0.000147735595703125	14.2030909641406
0.16357421875	0.000149993896484375	14.227490964079
0.166015625	0.0001522216796875	14.2518909640174
0.16845703125	0.000154449462890625	14.2762909639558
0.1708984375	0.000156707763671875	14.3006909638942
0.17333984375	0.000158935546875	14.3250909638326
0.17578125	0.00016119384765625	14.349490963771
0.17822265625	0.000163421630859375	14.3738909637094
0.1806640625	0.0001656494140625	14.3982909636478
0.18310546875	0.000167877197265625	14.4226909635862
0.185546875	0.000170135498046875	14.4470909635246
0.18798828125	0.00017236328125	14.471490963463
0.1904296875	0.000174591064453125	14.4958909634014
0.19287109375	0.000176849365234375	14.5202909633398
0.1953125	0.0001790771484375	14.5446909632782
0.19775390625	0.000181304931640625	14.5690909632166
0.2001953125	0.00018353271484375	14.593490963155
0.20263671875	0.000185791015625	14.6178909630934
0.205078125	0.000188018798828125	14.6422909630318
0.20751953125	0.000190277099609375	14.6666909629702
0.2099609375	0.0001925048828125	14.6910909629086
0.21240234375	0.00019476318359375	14.715490962847
0.21484375	0.00019696044921875	14.7398909627854
0.21728515625	0.00019921875	14.7642909627237
0.2197265625	0.000201446533203125	14.7886909626621
0.22216796875	0.000203704833984375	14.8130909626005
0.224609375	0.0002059326171875	14.8374909625389
0.22705078125	0.00020819091796875	14.8618909624773
0.2294921875	0.000210418701171875	14.8862909624157
0.23193359375	0.000212646484375	14.9106909623541
0.234375	0.00021490478515625	14.9350909622925
0.23681640625	0.000217132568359375	14.9594909622309
0.2392578125	0.0002193603515625	14.9838909621693
0.24169921875	0.000221588134765625	15.0082909621077
0.244140625	0.000223846435546875	15.0326909620461
0.24658203125	0.00022607421875	15.0570909619845
0.2490234375	0.00022833251953125	15.0814909619229
0.25146484375	0.000230560302734375	15.1058909618613
0.25390625	0.0002327880859375	15.1302909617997
0.25634765625	0.00023504638671875	15.1546909617381
0.2587890625	0.000237274169921875	15.1790909616765
0.26123046875	0.000239501953125	15.2034909616149
0.263671875	0.00024176025390625	15.2278909615533
0.26611328125	0.000243988037109375	15.2522909614917
0.2685546875	0.0002462158203125	15.2766909614301
0.27099609375	0.00024847412109375	15.3010909613685
0.2734375	0.00025067138671875	15.3254909613069
0.27587890625	0.000252899169921875	15.3498909612453
0.2783203125	0.000255157470703125	15.3742909611836
0.28076171875	0.00025738525390625	15.398690961122
0.283203125	0.000259613037109375	15.4230909610604
0.28564453125	0.000261871337890625	15.4474909609988
0.2880859375	0.00026409912109375	15.4718909609372
0.29052734375	0.000266357421875	15.4962909608756
0.29296875	0.000268585205078125	15.520690960814
0.29541015625	0.000270843505859375	15.5450909607524
0.2978515625	0.0002730712890625	15.5694909606908
0.30029296875	0.000275299072265625	15.5938909606292
0.302734375	0.000277557373046875	15.6182909605676
0.30517578125	0.00027978515625	15.642690960506
0.3076171875	0.000282012939453125	15.6670909604444
0.31005859375	0.00028424072265625	15.6914909603828
0.3125	0.000286529541015625	15.7158909603212
0.31494140625	0.00028875732421875	15.7402909602596
0.3173828125	0.000290985107421875	15.764690960198
0.31982421875	0.000293212890625	15.7890909601364
0.322265625	0.00029547119140625	15.8134909600748
0.32470703125	0.000297698974609375	15.8378909600132
0.3271484375	0.000299957275390625	15.8622909599516
0.32958984375	0.00030218505859375	15.88669095989
0.33203125	0.0003045654296875	15.9110909598284
0.33447265625	0.000306793212890625	15.9354909597668
0.3369140625	0.00030902099609375	15.9598909597051
0.33935546875	0.000311279296875	15.9842909596435
0.341796875	0.000313507080078125	16.0086909595819
0.34423828125	0.00031573486328125	16.0330909595203
0.3466796875	0.0003179931640625	16.0574909594587
0.34912109375	0.000320220947265625	16.0818909593971
0.3515625	0.00032244873046875	16.1062909593355
0.35400390625	0.000324676513671875	16.1306909592739
0.3564453125	0.000326934814453125	16.1550909592123
0.35888671875	0.00032916259765625	16.1794909591507
0.361328125	0.0003314208984375	16.2038909590891
0.36376953125	0.000333648681640625	16.2282909590275
0.3662109375	0.00033587646484375	16.2526909589659
0.36865234375	0.000338134765625	16.2770909589043
0.37109375	0.000340362548828125	16.3014909588427
0.37353515625	0.000342620849609375	16.3258909587811
0.3759765625	0.0003448486328125	16.3502909587195
0.37841796875	0.000347076416015625	16.3746909586579
0.380859375	0.000349334716796875	16.3990909585963
0.38330078125	0.0003515625	16.4234909585347
0.3857421875	0.000353790283203125	16.4478909584731
0.38818359375	0.00035601806640625	16.4722909584115
0.390625	0.0003582763671875	16.4966909583499
0.39306640625	0.00036053466796875	16.5210909582883
0.3955078125	0.000362762451171875	16.5454909582267
0.39794921875	0.000364990234375	16.569890958165
0.400390625	0.000367218017578125	16.5942909581034
0.40283203125	0.000369476318359375	16.6186909580418
0.4052734375	0.0003717041015625	16.6430909579802
0.40771484375	0.000373931884765625	16.6674909579186
0.41015625	0.00037615966796875	16.691890957857
0.41259765625	0.00037841796875	16.7162909577954
0.4150390625	0.000380645751953125	16.7406909577338
0.41748046875	0.000382904052734375	16.7650909576722
0.419921875	0.0003851318359375	16.7894909576106
0.42236328125	0.000387359619140625	16.813890957549
0.4248046875	0.000389617919921875	16.8382909574874
0.42724609375	0.000391845703125	16.8626909574258
0.4296875	0.000394073486328125	16.8870909573642
0.43212890625	0.000396331787109375	16.9114909573026
0.4345703125	0.0003985595703125	16.935890957241
0.43701171875	0.000400787353515625	16.9602909571794
0.439453125	0.000403045654296875	16.9846909571178
0.44189453125	0.0004052734375	17.0090909570562
0.4443359375	0.000407501220703125	17.0334909569946
0.44677734375	0.000409759521484375	17.057890956933
0.44921875	0.0004119873046875	17.0822909568714
0.45166015625	0.000414215087890625	17.1066909568098
0.4541015625	0.000416473388671875	17.1310909567482
0.45654296875	0.000418701171875	17.1554909566865
0.458984375	0.000420928955078125	17.1798909566249
0.46142578125	0.000423187255859375	17.2042909565633
0.4638671875	0.0004254150390625	17.2286909565017
0.46630859375	0.00042767333984375	17.2530909564401
0.46875	0.00042987060546875	17.2774909563785
0.47119140625	0.00043212890625	17.3018909563169
0.4736328125	0.000434356689453125	17.3262909562553
0.47607421875	0.000436614990234375	17.3506909561937
0.478515625	0.0004388427734375	17.3750909561321
0.48095703125	0.00044110107421875	17.3994909560705
0.4833984375	0.000443328857421875	17.4238909560089
0.48583984375	0.000445556640625	17.4482909559473
0.48828125	0.000447784423828125	17.4726909558857
0.49072265625	0.000450042724609375	17.4970909558241
0.4931640625	0.000452301025390625	17.5214909557625
0.49560546875	0.00045452880859375	17.5458909557009
0.498046875	0.000456756591796875	17.5702909556393
0.50048828125	0.000459014892578125	17.5946909555777
0.5029296875	0.00046124267578125	17.6190909555161
0.50537109375	0.000463470458984375	17.6434909554545
0.5078125	0.0004656982421875	17.6678909553929
0.51025390625	0.00046795654296875	17.6922909553313
0.5126953125	0.000470184326171875	17.7166909552697
0.51513671875	0.000472412109375	17.7410909552081
0.517578125	0.00047467041015625	17.7654909551464
0.52001953125	0.000476898193359375	17.7898909550848
0.5224609375	0.0004791259765625	17.8142909550232
0.52490234375	0.00048138427734375	17.8386909549616
0.52734375	0.000483612060546875	17.8630909549
0.52978515625	0.00048583984375	17.8874909548384
0.5322265625	0.00048809814453125	17.9118909547768
0.53466796875	0.000490325927734375	17.9362909547152
0.537109375	0.000492584228515625	17.9606909546536
0.53955078125	0.00049481201171875	17.985090954592
0.5419921875	0.000497039794921875	18.0094909545304
0.54443359375	0.000499298095703125	18.0338909544688
0.546875	0.000501708984375	18.0582909544072
0.54931640625	0.00050384521484375	18.0826909543456
0.5517578125	0.0005059814453125	18.107090954284
0.55419921875	0.0005084228515625	18.1314909542224
0.556640625	0.00051055908203125	18.1558909541608
0.55908203125	0.00051300048828125	18.1802909540992
0.5615234375	0.00051513671875	18.2046909540376
0.56396484375	0.00051727294921875	18.229090953976
0.56640625	0.00051971435546875	18.2534909539144
0.56884765625	0.0005218505859375	18.2778909538528
0.5712890625	0.00052398681640625	18.3022909537912
0.57373046875	0.000526123046875	18.3266909537296
0.576171875	0.000528564453125	18.3510909536679
0.57861328125	0.00053070068359375	18.3754909536063
0.5810546875	0.0005328369140625	18.3998909535447
0.58349609375	0.0005352783203125	18.4242909534831
0.5859375	0.00053741455078125	18.4486909534215
0.58837890625	0.00053955078125	18.4730909533599
0.5908203125	0.0005419921875	18.4974909532983
0.59326171875	0.00054412841796875	18.5218909532367
0.595703125	0.0005462646484375	18.5462909531751
0.59814453125	0.0005487060546875	18.5706909531135
0.6005859375	0.00055084228515625	18.5950909530519
0.60302734375	0.000552978515625	18.6194909529903
0.60546875	0.000555419921875	18.6438909529287
0.60791015625	0.00055755615234375	18.6682909528671
0.6103515625	0.0005596923828125	18.6926909528055
0.61279296875	0.0005621337890625	18.7170909527439
0.615234375	0.00056427001953125	18.7414909526823
0.61767578125	0.00056640625	18.7658909526207
0.6201171875	0.00056884765625	18.7902909525591
0.62255859375	0.00057098388671875	18.8146909524975
0.625	0.0005731201171875	18.8390909524359
0.62744140625	0.0005755615234375	18.8634909523743
0.6298828125	0.00057769775390625	18.8878909523127
0.63232421875	0.000579833984375	18.9122909522511
0.634765625	0.000582275390625	18.9366909521895
0.63720703125	0.00058441162109375	18.9610909521278
0.6396484375	0.00058685302734375	18.9854909520662
0.64208984375	0.0005889892578125	19.0098909520046
0.64453125	0.00059112548828125	19.034290951943
0.64697265625	0.00059356689453125	19.0586909518814
0.6494140625	0.000595703125	19.0830909518198
0.65185546875	0.00059783935546875	19.1074909517582
0.654296875	0.00060028076171875	19.1318909516966
0.65673828125	0.0006024169921875	19.156290951635
0.6591796875	0.00060455322265625	19.1806909515734
0.66162109375	0.00060699462890625	19.2050909515118
0.6640625	0.000609130859375	19.2294909514502
0.66650390625	0.00061126708984375	19.2538909513886
0.6689453125	0.00061370849609375	19.278290951327
0.67138671875	0.0006158447265625	19.3026909512654
0.673828125	0.00061798095703125	19.3270909512038
0.67626953125	0.00062042236328125	19.3514909511422
0.6787109375	0.00062255859375	19.3758909510806
0.68115234375	0.00062469482421875	19.400290951019
0.68359375	0.00062713623046875	19.4246909509574
0.68603515625	0.0006292724609375	19.4490909508958
0.6884765625	0.00063140869140625	19.4734909508342
0.69091796875	0.000633544921875	19.4978909507726
0.693359375	0.000635986328125	19.522290950711
0.69580078125	0.00063812255859375	19.5466909506493
0.6982421875	0.00064056396484375	19.5710909505877
0.70068359375	0.0006427001953125	19.5954909505261
0.703125	0.00064483642578125	19.6198909504645
0.70556640625	0.00064727783203125	19.6442909504029
0.7080078125	0.0006494140625	19.6686909503413
0.71044921875	0.00065155029296875	19.6930909502797
0.712890625	0.00065399169921875	19.7174909502181
0.71533203125	0.0006561279296875	19.7418909501565
0.7177734375	0.00065826416015625	19.7662909500949
0.72021484375	0.00066070556640625	19.7906909500333
0.72265625	0.000662841796875	19.8150909499717
0.72509765625	0.00066497802734375	19.8394909499101
0.7275390625	0.00066741943359375	19.8638909498485
0.72998046875	0.0006695556640625	19.8882909497869
0.732421875	0.00067169189453125	19.9126909497253
0.73486328125	0.00067413330078125	19.9370909496637
0.7373046875	0.00067626953125	19.9614909496021
0.73974609375	0.00067840576171875	19.9858909495405
0.7421875	0.00068084716796875	20.0102909494789
0.74462890625	0.0006829833984375	20.0346909494173
0.7470703125	0.0006854248046875	20.0590909493557
0.74951171875	0.00068756103515625	20.0834909492941
0.751953125	0.000689697265625	20.1078909492325
0.75439453125	0.000692138671875	20.1322909491709
0.7568359375	0.00069427490234375	20.1566909491092
0.75927734375	0.0006964111328125	20.1810909490476
0.76171875	0.00069854736328125	20.205490948986
0.76416015625	0.00070098876953125	20.2298909489244
0.7666015625	0.000703125	20.2542909488628
0.76904296875	0.00070526123046875	20.2786909488012
0.771484375	0.00070770263671875	20.3030909487396
0.77392578125	0.0007098388671875	20.327490948678
0.7763671875	0.00071197509765625	20.3518909486164
0.77880859375	0.00071441650390625	20.3762909485548
0.78125	0.000716552734375	20.4006909484932
0.78369140625	0.00071868896484375	20.4250909484316
0.7861328125	0.00072113037109375	20.44949094837
0.78857421875	0.0007232666015625	20.4738909483084
0.791015625	0.00072540283203125	20.4982909482468
0.79345703125	0.00072784423828125	20.5226909481852
0.7958984375	0.00072998046875	20.5470909481236
0.79833984375	0.00073211669921875	20.571490948062
0.80078125	0.00073455810546875	20.5958909480004
0.80322265625	0.0007366943359375	20.6202909479388
0.8056640625	0.00073883056640625	20.6446909478772
0.80810546875	0.00074127197265625	20.6690909478156
0.810546875	0.000743408203125	20.693490947754
0.81298828125	0.000745849609375	20.7178909476924
0.8154296875	0.00074798583984375	20.7422909476308
0.81787109375	0.0007501220703125	20.7666909475691
0.8203125	0.0007525634765625	20.7910909475075
0.82275390625	0.00075469970703125	20.8154909474459
0.8251953125	0.0007568359375	20.8398909473843
0.82763671875	0.00075927734375	20.8642909473227
0.830078125	0.00076141357421875	20.8886909472611
0.83251953125	0.0007635498046875	20.9130909471995
0.8349609375	0.0007659912109375	20.9374909471379
0.83740234375	0.00076812744140625	20.9618909470763
0.83984375	0.000770263671875	20.9862909470147
0.84228515625	0.000772705078125	21.0106909469531
0.8447265625	0.00077484130859375	21.0350909468915
0.84716796875	0.0007769775390625	21.0594909468299
0.849609375	0.0007794189453125	21.0838909467683
0.85205078125	0.00078155517578125	21.1082909467067
0.8544921875	0.00078369140625	21.1326909466451
0.85693359375	0.0007861328125	21.1570909465835
0.859375	0.00078826904296875	21.1814909465219
0.86181640625	0.0007904052734375	21.2058909464603
0.8642578125	0.0007928466796875	21.2302909463987
0.86669921875	0.00079498291015625	21.2546909463371
0.869140625	0.000797119140625	21.2790909462755
0.87158203125	0.000799560546875	21.3034909462139
0.8740234375	0.00080169677734375	21.3278909461523
0.87646484375	0.0008038330078125	21.3522909460906
0.87890625	0.0008062744140625	21.376690946029
0.88134765625	0.00080841064453125	21.4010909459674
0.8837890625	0.000810546875	21.4254909459058
0.88623046875	0.00081298828125	21.4498909458442
0.888671875	0.00081512451171875	21.4742909457826
0.89111328125	0.0008172607421875	21.498690945721
0.8935546875	0.0008197021484375	21.5230909456594
0.89599609375	0.00082183837890625	21.5474909455978
0.8984375	0.00082427978515625	21.5718909455362
0.90087890625	0.000826416015625	21.5962909454746
0.9033203125	0.00082855224609375	21.620690945413
0.90576171875	0.00083099365234375	21.6450909453514
0.908203125	0.0008331298828125	21.6694909452898
0.91064453125	0.00083526611328125	21.6938909452282
0.9130859375	0.00083770751953125	21.7182909451666
0.91552734375	0.00083984375	21.742690945105
0.91796875	0.00084197998046875	21.7670909450434
0.92041015625	0.00084442138671875	21.7914909449818
0.9228515625	0.0008465576171875	21.8158909449202
0.92529296875	0.00084869384765625	21.8402909448586
0.927734375	0.00085113525390625	21.864690944797
0.93017578125	0.000853271484375	21.8890909447354
0.9326171875	0.00085540771484375	21.9134909446738
0.93505859375	0.00085784912109375	21.9378909446122
0.9375	0.0008599853515625	21.9622909445505
0.93994140625	0.00086212158203125	21.9866909444889
0.9423828125	0.00086456298828125	22.0110909444273
0.94482421875	0.00086669921875	22.0354909443657
0.947265625	0.00086883544921875	22.0598909443041
0.94970703125	0.00087127685546875	22.0842909442425
0.9521484375	0.0008734130859375	22.1086909441809
0.95458984375	0.00087554931640625	22.1330909441193
0.95703125	0.00087799072265625	22.1574909440577
0.95947265625	0.000880126953125	22.1818909439961
0.9619140625	0.00088226318359375	22.2062909439345
0.96435546875	0.00088470458984375	22.2306909438729
0.966796875	0.0008868408203125	22.2550909438113
0.96923828125	0.00088897705078125	22.2794909437497
0.9716796875	0.00089141845703125	22.3038909436881
0.97412109375	0.0008935546875	22.3282909436265
0.9765625	0.00089569091796875	22.3526909435649
0.97900390625	0.00089813232421875	22.3770909435033
0.9814453125	0.0009002685546875	22.4014909434417
0.98388671875	0.00090240478515625	22.4258909433801
0.986328125	0.00090484619140625	22.4502909433185
