
Potential applied (V)	WE(1).Current (A)	Time (s)
0.00244140625	9.48699951171875E-07	12.6170909681449
0.0048828125	4.532470703125E-06	12.6414909680833
0.00732421875	6.7840576171875E-06	12.6658909680217
0.009765625	9.0118408203125E-06	12.6902909679601
0.01220703125	1.12548828125E-05	12.7146909678985
0.0146484375	1.348876953125E-05	12.7390909678369
0.01708984375	1.57257080078125E-05	12.7634909677753
0.01953125	1.7962646484375E-05	12.7878909677137
0.02197265625	2.02056884765625E-05	12.8122909676521
0.0244140625	2.2442626953125E-05	12.8366909675905
0.02685546875	2.46795654296875E-05	12.8610909675289
0.029296875	2.69256591796875E-05	12.8854909674673
0.03173828125	2.9150390625E-05	12.9098909674057
0.0341796875	3.13934326171875E-05	12.9342909673441
0.03662109375	3.36395263671875E-05	12.9586909672825
0.0390625	3.58673095703125E-05	12.9830909672208
0.04150390625	3.809814453125E-05	13.0074909671592
0.0439453125	4.034423828125E-05	13.0318909670976
0.04638671875	4.2578125E-05	13.056290967036
0.048828125	4.481201171875E-05	13.0806909669744
0.05126953125	4.7052001953125E-05	13.1050909669128
0.0537109375	4.92919921875E-05	13.1294909668512
0.05615234375	5.1544189453125E-05	13.1538909667896
0.05859375	5.377197265625E-05	13.178290966728
0.06103515625	5.5999755859375E-05	13.2026909666664
0.0634765625	5.82275390625E-05	13.2270909666048
0.06591796875	6.048583984375E-05	13.2514909665432
0.068359375	6.2713623046875E-05	13.2758909664816
0.07080078125	6.4971923828125E-05	13.30029096642
0.0732421875	6.719970703125E-05	13.3246909663584
0.07568359375	6.94580078125E-05	13.3490909662968
0.078125	7.1685791015625E-05	13.3734909662352
0.08056640625	7.391357421875E-05	13.3978909661736
0.0830078125	7.6171875E-05	13.422290966112
0.08544921875	7.8399658203125E-05	13.4466909660504
0.087890625	8.062744140625E-05	13.4710909659888
0.09033203125	8.28857421875E-05	13.4954909659272
0.0927734375	8.5113525390625E-05	13.5198909658656
0.09521484375	8.734130859375E-05	13.544290965804
0.09765625	8.9599609375E-05	13.5686909657423
0.10009765625	9.1827392578125E-05	13.5930909656807
0.1025390625	9.405517578125E-05	13.6174909656191
0.10498046875	9.63134765625E-05	13.6418909655575
0.107421875	9.8541259765625E-05	13.6662909654959
0.10986328125	0.00010076904296875	13.6906909654343
0.1123046875	0.00010302734375	13.7150909653727
0.11474609375	0.000105255126953125	13.7394909653111
0.1171875	0.00010748291015625	13.7638909652495
0.11962890625	0.000109710693359375	13.7882909651879
0.1220703125	0.000111968994140625	13.8126909651263
0.12451171875	0.00011419677734375	13.8370909650647
0.126953125	0.000116455078125	13.8614909650031
0.12939453125	0.000118682861328125	13.8858909649415
0.1318359375	0.00012091064453125	13.9102909648799
0.13427734375	0.0001231689453125	13.9346909648183
0.13671875	0.0001253662109375	13.9590909647567
0.13916015625	0.00012762451171875	13.9834909646951
0.1416015625	0.000129852294921875	14.0078909646335
0.14404296875	0.000132110595703125	14.0322909645719
0.146484375	0.000134307861328125	14.0566909645103
0.14892578125	0.000136566162109375	14.0810909644487
0.1513671875	0.0001387939453125	14.1054909643871
0.15380859375	0.00014105224609375	14.1298909643255
0.15625	0.00014324951171875	14.1542909642639
0.15869140625	0.0001455078125	14.1786909642022
0.1611328125	0.000147735595703125	14.2030909641406
0.16357421875	0.000149993896484375	14.227490964079
0.166015625	0.0001522216796875	14.2518909640174
0.16845703125	0.000154449462890625	14.2762909639558
0.1708984375	0.000156707763671875	14.3006909638942
0.17333984375	0.000158935546875	14.3250909638326
0.17578125	0.00016119384765625	14.349490963771
0.17822265625	0.000163421630859375	14.3738909637094
0.1806640625	0.0001656494140625	14.3982909636478
0.18310546875	0.000167877197265625	14.4226909635862
0.185546875	0.000170135498046875	14.4470909635246
0.18798828125	0.00017236328125	14.471490963463
0.1904296875	0.000174591064453125	14.4958909634014
0.19287109375	0.000176849365234375	14.5202909633398
0.1953125	0.0001790771484375	14.5446909632782
0.19775390625	0.000181304931640625	14.5690909632166
0.2001953125	0.00018353271484375	14.593490963155
0.20263671875	0.000185791015625	14.6178909630934
0.205078125	0.000188018798828125	14.6422909630318
0.20751953125	0.000190277099609375	14.6666909629702
0.2099609375	0.0001925048828125	14.6910909629086
0.21240234375	0.00019476318359375	14.715490962847
0.21484375	0.00019696044921875	14.7398909627854
0.21728515625	0.00019921875	14.7642909627237
0.2197265625	0.000201446533203125	14.7886909626621
0.22216796875	0.000203704833984375	14.8130909626005
0.224609375	0.0002059326171875	14.8374909625389
0.22705078125	0.00020819091796875	14.8618909624773
0.2294921875	0.000210418701171875	14.8862909624157
0.23193359375	0.000212646484375	14.9106909623541
0.234375	0.00021490478515625	14.9350909622925
0.23681640625	0.000217132568359375	14.9594909622309
0.2392578125	0.0002193603515625	14.9838909621693
0.24169921875	0.000221588134765625	15.0082909621077
0.244140625	0.000223846435546875	15.0326909620461
0.24658203125	0.00022607421875	15.0570909619845
0.2490234375	0.00022833251953125	15.0814909619229
0.25146484375	0.000230560302734375	15.1058909618613
0.25390625	0.0002327880859375	15.1302909617997
0.25634765625	0.00023504638671875	15.1546909617381
0.2587890625	0.000237274169921875	15.1790909616765
0.26123046875	0.000239501953125	15.2034909616149
0.263671875	0.00024176025390625	15.2278909615533
0.26611328125	0.000243988037109375	15.2522909614917
0.2685546875	0.0002462158203125	15.2766909614301
0.27099609375	0.00024847412109375	15.3010909613685
0.2734375	0.00025067138671875	15.3254909613069
0.27587890625	0.000252899169921875	15.3498909612453
0.2783203125	0.000255157470703125	15.3742909611836
0.28076171875	0.00025738525390625	15.398690961122
0.283203125	0.000259613037109375	15.4230909610604
0.28564453125	0.000261871337890625	15.4474909609988
0.2880859375	0.00026409912109375	15.4718909609372
0.29052734375	0.000266357421875	15.4962909608756
0.29296875	0.000268585205078125	15.520690960814
0.29541015625	0.000270843505859375	15.5450909607524
0.2978515625	0.0002730712890625	15.5694909606908
0.30029296875	0.000275299072265625	15.5938909606292
0.302734375	0.000277557373046875	15.6182909605676
0.30517578125	0.00027978515625	15.642690960506
0.3076171875	0.000282012939453125	15.6670909604444
0.31005859375	0.00028424072265625	15.6914909603828
0.3125	0.000286529541015625	15.7158909603212
0.31494140625	0.00028875732421875	15.7402909602596
0.3173828125	0.000290985107421875	15.764690960198
0.31982421875	0.000293212890625	15.7890909601364
0.322265625	0.00029547119140625	15.8134909600748
0.32470703125	0.000297698974609375	15.8378909600132
0.3271484375	0.000299957275390625	15.8622909599516
0.32958984375	0.00030218505859375	15.88669095989
0.33203125	0.0003045654296875	15.9110909598284
0.33447265625	0.000306793212890625	15.9354909597668
0.3369140625	0.00030902099609375	15.9598909597051
0.33935546875	0.000311279296875	15.9842909596435
0.341796875	0.000313507080078125	16.0086909595819
0.34423828125	0.00031573486328125	16.0330909595203
0.3466796875	0.0003179931640625	16.0574909594587
0.34912109375	0.000320220947265625	16.0818909593971
0.3515625	0.00032244873046875	16.1062909593355
0.35400390625	0.000324676513671875	16.1306909592739
0.3564453125	0.000326934814453125	16.1550909592123
0.35888671875	0.00032916259765625	16.1794909591507
0.361328125	0.0003314208984375	16.2038909590891
0.36376953125	0.000333648681640625	16.2282909590275
0.3662109375	0.00033587646484375	16.2526909589659
0.36865234375	0.000338134765625	16.2770909589043
0.37109375	0.000340362548828125	16.3014909588427
0.37353515625	0.000342620849609375	16.3258909587811
0.3759765625	0.0003448486328125	16.3502909587195
0.37841796875	0.000347076416015625	16.3746909586579
0.380859375	0.000349334716796875	16.3990909585963
0.38330078125	0.0003515625	16.4234909585347
0.3857421875	0.000353790283203125	16.4478909584731
0.38818359375	0.00035601806640625	16.4722909584115
0.390625	0.0003582763671875	16.4966909583499
0.39306640625	0.00036053466796875	16.5210909582883
0.3955078125	0.000362762451171875	16.5454909582267
0.39794921875	0.000364990234375	16.569890958165
0.400390625	0.000367218017578125	16.5942909581034
0.40283203125	0.000369476318359375	16.6186909580418
0.4052734375	0.0003717041015625	16.6430909579802
0.40771484375	0.000373931884765625	16.6674909579186
0.41015625	0.00037615966796875	16.691890957857
0.41259765625	0.00037841796875	16.7162909577954
0.4150390625	0.000380645751953125	16.7406909577338
0.41748046875	0.000382904052734375	16.7650909576722
0.419921875	0.0003851318359375	16.7894909576106
0.42236328125	0.000387359619140625	16.813890957549
0.4248046875	0.000389617919921875	16.8382909574874
0.42724609375	0.000391845703125	16.8626909574258
0.4296875	0.000394073486328125	16.8870909573642
0.43212890625	0.000396331787109375	16.9114909573026
0.4345703125	0.0003985595703125	16.935890957241
0.43701171875	0.000400787353515625	16.9602909571794
0.439453125	0.000403045654296875	16.9846909571178
0.44189453125	0.0004052734375	17.0090909570562
0.4443359375	0.000407501220703125	17.0334909569946
0.44677734375	0.000409759521484375	17.057890956933
0.44921875	0.0004119873046875	17.0822909568714
0.45166015625	0.000414215087890625	17.1066909568098
0.4541015625	0.000416473388671875	17.1310909567482
0.45654296875	0.000418701171875	17.1554909566865
0.458984375	0.000420928955078125	17.1798909566249
0.46142578125	0.000423187255859375	17.2042909565633
0.4638671875	0.0004254150390625	17.2286909565017
0.46630859375	0.00042767333984375	17.2530909564401
0.46875	0.00042987060546875	17.2774909563785
0.47119140625	0.00043212890625	17.3018909563169
0.4736328125	0.000434356689453125	17.3262909562553
0.47607421875	0.000436614990234375	17.3506909561937
0.478515625	0.0004388427734375	17.3750909561321
0.48095703125	0.00044110107421875	17.3994909560705
0.4833984375	0.000443328857421875	17.4238909560089
0.48583984375	0.000445556640625	17.4482909559473
0.48828125	0.000447784423828125	17.4726909558857
0.49072265625	0.000450042724609375	17.4970909558241
0.4931640625	0.000452301025390625	17.5214909557625
0.49560546875	0.00045452880859375	17.5458909557009
0.498046875	0.000456756591796875	17.5702909556393
0.50048828125	0.000459014892578125	17.5946909555777
0.5029296875	0.00046124267578125	17.6190909555161
0.50537109375	0.000463470458984375	17.6434909554545
0.5078125	0.0004656982421875	17.6678909553929
0.51025390625	0.00046795654296875	17.6922909553313
0.5126953125	0.000470184326171875	17.7166909552697
0.51513671875	0.000472412109375	17.7410909552081
0.517578125	0.00047467041015625	17.7654909551464
0.52001953125	0.000476898193359375	17.7898909550848
0.5224609375	0.0004791259765625	17.8142909550232
0.52490234375	0.00048138427734375	17.8386909549616
0.52734375	0.000483612060546875	17.8630909549
0.52978515625	0.00048583984375	17.8874909548384
0.5322265625	0.00048809814453125	17.9118909547768
0.53466796875	0.000490325927734375	17.9362909547152
0.537109375	0.000492584228515625	17.9606909546536
0.53955078125	0.00049481201171875	17.985090954592
0.5419921875	0.000497039794921875	18.0094909545304
0.54443359375	0.000499298095703125	18.0338909544688
0.546875	0.000501708984375	18.0582909544072
0.54931640625	0.00050384521484375	18.0826909543456
0.5517578125	0.0005059814453125	18.107090954284
0.55419921875	0.0005084228515625	18.1314909542224
0.556640625	0.00051055908203125	18.1558909541608
0.55908203125	0.00051300048828125	18.1802909540992
0.5615234375	0.00051513671875	18.2046909540376
0.56396484375	0.00051727294921875	18.229090953976
0.56640625	0.00051971435546875	18.2534909539144
0.56884765625	0.0005218505859375	18.2778909538528
0.5712890625	0.00052398681640625	18.3022909537912
0.57373046875	0.000526123046875	18.3266909537296
0.576171875	0.000528564453125	18.3510909536679
0.57861328125	0.00053070068359375	18.3754909536063
0.5810546875	0.0005328369140625	18.3998909535447
0.58349609375	0.0005352783203125	18.4242909534831
0.5859375	0.00053741455078125	18.4486909534215
0.58837890625	0.00053955078125	18.4730909533599
0.5908203125	0.0005419921875	18.4974909532983
0.59326171875	0.00054412841796875	18.5218909532367
0.595703125	0.0005462646484375	18.5462909531751
0.59814453125	0.0005487060546875	18.5706909531135
0.6005859375	0.00055084228515625	18.5950909530519
0.60302734375	0.000552978515625	18.6194909529903
0.60546875	0.000555419921875	18.6438909529287
0.60791015625	0.00055755615234375	18.6682909528671
0.6103515625	0.0005596923828125	18.6926909528055
0.61279296875	0.0005621337890625	18.7170909527439
0.615234375	0.00056427001953125	18.7414909526823
0.61767578125	0.00056640625	18.7658909526207
0.6201171875	0.00056884765625	18.7902909525591
0.62255859375	0.00057098388671875	18.8146909524975
0.625	0.0005731201171875	18.8390909524359
0.62744140625	0.0005755615234375	18.8634909523743
0.6298828125	0.00057769775390625	18.8878909523127
0.63232421875	0.000579833984375	18.9122909522511
0.634765625	0.000582275390625	18.9366909521895
0.63720703125	0.00058441162109375	18.9610909521278
0.6396484375	0.00058685302734375	18.9854909520662
0.64208984375	0.0005889892578125	19.0098909520046
0.64453125	0.00059112548828125	19.034290951943
0.64697265625	0.00059356689453125	19.0586909518814
0.6494140625	0.000595703125	19.0830909518198
0.65185546875	0.00059783935546875	19.1074909517582
0.654296875	0.00060028076171875	19.1318909516966
0.65673828125	0.0006024169921875	19.156290951635
0.6591796875	0.00060455322265625	19.1806909515734
0.66162109375	0.00060699462890625	19.2050909515118
0.6640625	0.000609130859375	19.2294909514502
0.66650390625	0.00061126708984375	19.2538909513886
0.6689453125	0.00061370849609375	19.278290951327
0.67138671875	0.0006158447265625	19.3026909512654
0.673828125	0.00061798095703125	19.3270909512038
0.67626953125	0.00062042236328125	19.3514909511422
0.6787109375	0.00062255859375	19.3758909510806
0.68115234375	0.00062469482421875	19.400290951019
0.68359375	0.00062713623046875	19.4246909509574
0.68603515625	0.0006292724609375	19.4490909508958
0.6884765625	0.00063140869140625	19.4734909508342
0.69091796875	0.000633544921875	19.4978909507726
0.693359375	0.000635986328125	19.522290950711
0.69580078125	0.00063812255859375	19.5466909506493
0.6982421875	0.00064056396484375	19.5710909505877
0.70068359375	0.0006427001953125	19.5954909505261
0.703125	0.00064483642578125	19.6198909504645
0.70556640625	0.00064727783203125	19.6442909504029
0.7080078125	0.0006494140625	19.6686909503413
0.71044921875	0.00065155029296875	19.6930909502797
0.712890625	0.00065399169921875	19.7174909502181
0.71533203125	0.0006561279296875	19.7418909501565
0.7177734375	0.00065826416015625	19.7662909500949
0.72021484375	0.00066070556640625	19.7906909500333
0.72265625	0.000662841796875	19.8150909499717
0.72509765625	0.00066497802734375	19.8394909499101
0.7275390625	0.00066741943359375	19.8638909498485
0.72998046875	0.0006695556640625	19.8882909497869
0.732421875	0.00067169189453125	19.9126909497253
0.73486328125	0.00067413330078125	19.9370909496637
0.7373046875	0.00067626953125	19.9614909496021
0.73974609375	0.00067840576171875	19.9858909495405
0.7421875	0.00068084716796875	20.0102909494789
0.74462890625	0.0006829833984375	20.0346909494173
0.7470703125	0.0006854248046875	20.0590909493557
0.74951171875	0.00068756103515625	20.0834909492941
0.751953125	0.000689697265625	20.1078909492325
0.75439453125	0.000692138671875	20.1322909491709
0.7568359375	0.00069427490234375	20.1566909491092
0.75927734375	0.0006964111328125	20.1810909490476
0.76171875	0.00069854736328125	20.205490948986
0.76416015625	0.00070098876953125	20.2298909489244
0.7666015625	0.000703125	20.2542909488628
0.76904296875	0.00070526123046875	20.2786909488012
0.771484375	0.00070770263671875	20.3030909487396
0.77392578125	0.0007098388671875	20.327490948678
0.7763671875	0.00071197509765625	20.3518909486164
0.77880859375	0.00071441650390625	20.3762909485548
0.78125	0.000716552734375	20.4006909484932
0.78369140625	0.00071868896484375	20.4250909484316
0.7861328125	0.00072113037109375	20.44949094837
0.78857421875	0.0007232666015625	20.4738909483084
0.791015625	0.00072540283203125	20.4982909482468
0.79345703125	0.00072784423828125	20.5226909481852
0.7958984375	0.00072998046875	20.5470909481236
0.79833984375	0.00073211669921875	20.571490948062
0.80078125	0.00073455810546875	20.5958909480004
0.80322265625	0.0007366943359375	20.6202909479388
0.8056640625	0.00073883056640625	20.6446909478772
0.80810546875	0.00074127197265625	20.6690909478156
0.810546875	0.000743408203125	20.693490947754
0.81298828125	0.000745849609375	20.7178909476924
0.8154296875	0.00074798583984375	20.7422909476308
0.81787109375	0.0007501220703125	20.7666909475691
0.8203125	0.0007525634765625	20.7910909475075
0.82275390625	0.00075469970703125	20.8154909474459
0.8251953125	0.0007568359375	20.8398909473843
0.82763671875	0.00075927734375	20.8642909473227
0.830078125	0.00076141357421875	20.8886909472611
0.83251953125	0.0007635498046875	20.9130909471995
0.8349609375	0.0007659912109375	20.9374909471379
0.83740234375	0.00076812744140625	20.9618909470763
0.83984375	0.000770263671875	20.9862909470147
0.84228515625	0.000772705078125	21.0106909469531
0.8447265625	0.00077484130859375	21.0350909468915
0.84716796875	0.0007769775390625	21.0594909468299
0.849609375	0.0007794189453125	21.0838909467683
0.85205078125	0.00078155517578125	21.1082909467067
0.8544921875	0.00078369140625	21.1326909466451
0.85693359375	0.0007861328125	21.1570909465835
0.859375	0.00078826904296875	21.1814909465219
0.86181640625	0.0007904052734375	21.2058909464603
0.8642578125	0.0007928466796875	21.2302909463987
0.86669921875	0.00079498291015625	21.2546909463371
0.869140625	0.000797119140625	21.2790909462755
0.87158203125	0.000799560546875	21.3034909462139
0.8740234375	0.00080169677734375	21.3278909461523
0.87646484375	0.0008038330078125	21.3522909460906
0.87890625	0.0008062744140625	21.376690946029
0.88134765625	0.00080841064453125	21.4010909459674
0.8837890625	0.000810546875	21.4254909459058
0.88623046875	0.00081298828125	21.4498909458442
0.888671875	0.00081512451171875	21.4742909457826
0.89111328125	0.0008172607421875	21.498690945721
0.8935546875	0.0008197021484375	21.5230909456594
0.89599609375	0.00082183837890625	21.5474909455978
0.8984375	0.00082427978515625	21.5718909455362
0.90087890625	0.000826416015625	21.5962909454746
0.9033203125	0.00082855224609375	21.620690945413
0.90576171875	0.00083099365234375	21.6450909453514
0.908203125	0.0008331298828125	21.6694909452898
0.91064453125	0.00083526611328125	21.6938909452282
0.9130859375	0.00083770751953125	21.7182909451666
0.91552734375	0.00083984375	21.742690945105
0.91796875	0.00084197998046875	21.7670909450434
0.92041015625	0.00084442138671875	21.7914909449818
0.9228515625	0.0008465576171875	21.8158909449202
0.92529296875	0.00084869384765625	21.8402909448586
0.927734375	0.00085113525390625	21.864690944797
0.93017578125	0.000853271484375	21.8890909447354
0.9326171875	0.00085540771484375	21.9134909446738
0.93505859375	0.00085784912109375	21.9378909446122
0.9375	0.0008599853515625	21.9622909445505
0.93994140625	0.00086212158203125	21.9866909444889
0.9423828125	0.00086456298828125	22.0110909444273
0.94482421875	0.00086669921875	22.0354909443657
0.947265625	0.00086883544921875	22.0598909443041
0.94970703125	0.00087127685546875	22.0842909442425
0.9521484375	0.0008734130859375	22.1086909441809
0.95458984375	0.00087554931640625	22.1330909441193
0.95703125	0.00087799072265625	22.1574909440577
0.95947265625	0.000880126953125	22.1818909439961
0.9619140625	0.00088226318359375	22.2062909439345
0.96435546875	0.00088470458984375	22.2306909438729
0.966796875	0.0008868408203125	22.2550909438113
0.96923828125	0.00088897705078125	22.2794909437497
0.9716796875	0.00089141845703125	22.3038909436881
0.97412109375	0.0008935546875	22.3282909436265
0.9765625	0.00089569091796875	22.3526909435649
0.97900390625	0.00089813232421875	22.3770909435033
0.9814453125	0.0009002685546875	22.4014909434417
0.98388671875	0.00090240478515625	22.4258909433801
0.986328125	0.00090484619140625	22.4502909433185
0.98876953125	0.000906982421875	22.4746909432569
0.9912109375	0.000909423828125	22.4990909431953
0.99365234375	0.00091156005859375	22.5234909431337
0.99609375	0.0009136962890625	22.547890943072
0.99853515625	0.0009161376953125	22.5722909430104
1.0009765625	0.00091827392578125	22.5966909429488
0.99853515625	0.00091583251953125	22.6210909428872
0.99609375	0.0009136962890625	22.6454909428256
0.99365234375	0.00091156005859375	22.669890942764
0.9912109375	0.000909423828125	22.6942909427024
0.98876953125	0.000906982421875	22.7186909426408
0.986328125	0.00090484619140625	22.7430909425792
0.98388671875	0.00090240478515625	22.7674909425176
0.9814453125	0.0009002685546875	22.791890942456
0.97900390625	0.00089813232421875	22.8162909423944
0.9765625	0.00089569091796875	22.8406909423328
0.97412109375	0.0008935546875	22.8650909422712
0.9716796875	0.00089141845703125	22.8894909422096
0.96923828125	0.00088897705078125	22.913890942148
0.966796875	0.0008868408203125	22.9382909420864
0.96435546875	0.00088470458984375	22.9626909420248
0.9619140625	0.00088226318359375	22.9870909419632
0.95947265625	0.000880126953125	23.0114909419016
0.95703125	0.00087799072265625	23.03589094184
0.95458984375	0.00087554931640625	23.0602909417784
0.9521484375	0.0008734130859375	23.0846909417168
0.94970703125	0.00087127685546875	23.1090909416552
0.947265625	0.00086883544921875	23.1334909415936
0.94482421875	0.00086669921875	23.1578909415319
0.9423828125	0.00086456298828125	23.1822909414703
0.93994140625	0.00086212158203125	23.2066909414087
0.9375	0.0008599853515625	23.2310909413471
0.93505859375	0.00085784912109375	23.2554909412855
0.9326171875	0.00085540771484375	23.2798909412239
0.93017578125	0.000853271484375	23.3042909411623
0.927734375	0.00085113525390625	23.3286909411007
0.92529296875	0.00084869384765625	23.3530909410391
0.9228515625	0.0008465576171875	23.3774909409775
0.92041015625	0.00084442138671875	23.4018909409159
0.91796875	0.00084197998046875	23.4262909408543
0.91552734375	0.00083984375	23.4506909407927
0.9130859375	0.00083770751953125	23.4750909407311
0.91064453125	0.00083526611328125	23.4994909406695
0.908203125	0.0008331298828125	23.5238909406079
0.90576171875	0.00083099365234375	23.5482909405463
0.9033203125	0.00082855224609375	23.5726909404847
0.90087890625	0.000826416015625	23.5970909404231
0.8984375	0.000823974609375	23.6214909403615
0.89599609375	0.00082183837890625	23.6458909402999
0.8935546875	0.0008197021484375	23.6702909402383
0.89111328125	0.0008172607421875	23.6946909401767
0.888671875	0.00081512451171875	23.7190909401151
0.88623046875	0.00081298828125	23.7434909400534
0.8837890625	0.000810546875	23.7678909399918
0.88134765625	0.00080841064453125	23.7922909399302
0.87890625	0.0008062744140625	23.8166909398686
0.87646484375	0.0008038330078125	23.841090939807
0.8740234375	0.00080169677734375	23.8654909397454
0.87158203125	0.000799560546875	23.8898909396838
0.869140625	0.000797119140625	23.9142909396222
0.86669921875	0.00079498291015625	23.9386909395606
0.8642578125	0.0007928466796875	23.963090939499
0.86181640625	0.0007904052734375	23.9874909394374
0.859375	0.00078826904296875	24.0118909393758
0.85693359375	0.0007861328125	24.0362909393142
0.8544921875	0.00078369140625	24.0606909392526
0.85205078125	0.00078155517578125	24.085090939191
0.849609375	0.0007794189453125	24.1094909391294
0.84716796875	0.0007769775390625	24.1338909390678
0.8447265625	0.00077484130859375	24.1582909390062
0.84228515625	0.000772705078125	24.1826909389446
0.83984375	0.000770263671875	24.207090938883
0.83740234375	0.00076812744140625	24.2314909388214
0.8349609375	0.0007659912109375	24.2558909387598
0.83251953125	0.0007635498046875	24.2802909386982
0.830078125	0.00076141357421875	24.3046909386366
0.82763671875	0.00075897216796875	24.329090938575
0.8251953125	0.0007568359375	24.3534909385133
0.82275390625	0.00075469970703125	24.3778909384517
0.8203125	0.0007525634765625	24.4022909383901
0.81787109375	0.0007501220703125	24.4266909383285
0.8154296875	0.00074798583984375	24.4510909382669
0.81298828125	0.000745849609375	24.4754909382053
0.810546875	0.000743408203125	24.4998909381437
0.80810546875	0.00074127197265625	24.5242909380821
0.8056640625	0.00073883056640625	24.5486909380205
0.80322265625	0.0007366943359375	24.5730909379589
0.80078125	0.00073455810546875	24.5974909378973
0.79833984375	0.00073211669921875	24.6218909378357
0.7958984375	0.00072998046875	24.6462909377741
0.79345703125	0.00072784423828125	24.6706909377125
0.791015625	0.00072540283203125	24.6950909376509
0.78857421875	0.0007232666015625	24.7194909375893
0.7861328125	0.00072113037109375	24.7438909375277
0.78369140625	0.00071868896484375	24.7682909374661
0.78125	0.000716552734375	24.7926909374045
0.77880859375	0.00071441650390625	24.8170909373429
0.7763671875	0.00071197509765625	24.8414909372813
0.77392578125	0.0007098388671875	24.8658909372197
0.771484375	0.00070770263671875	24.8902909371581
0.76904296875	0.00070526123046875	24.9146909370965
0.7666015625	0.000703125	24.9390909370348
0.76416015625	0.00070098876953125	24.9634909369732
0.76171875	0.0006988525390625	24.9878909369116
0.75927734375	0.0006964111328125	25.01229093685
0.7568359375	0.00069427490234375	25.0366909367884
0.75439453125	0.00069183349609375	25.0610909367268
0.751953125	0.000689697265625	25.0854909366652
0.74951171875	0.00068756103515625	25.1098909366036
0.7470703125	0.00068511962890625	25.134290936542
0.74462890625	0.0006829833984375	25.1586909364804
0.7421875	0.00068084716796875	25.1830909364188
0.73974609375	0.0006787109375	25.2074909363572
0.7373046875	0.00067626953125	25.2318909362956
0.73486328125	0.00067413330078125	25.256290936234
0.732421875	0.00067169189453125	25.2806909361724
0.72998046875	0.0006695556640625	25.3050909361108
0.7275390625	0.00066741943359375	25.3294909360492
0.72509765625	0.00066497802734375	25.3538909359876
0.72265625	0.000662841796875	25.378290935926
0.72021484375	0.00066070556640625	25.4026909358644
0.7177734375	0.00065826416015625	25.4270909358028
0.71533203125	0.0006561279296875	25.4514909357412
0.712890625	0.00065399169921875	25.4758909356796
0.71044921875	0.00065155029296875	25.500290935618
0.7080078125	0.0006494140625	25.5246909355564
0.70556640625	0.00064727783203125	25.5490909354947
0.703125	0.00064483642578125	25.5734909354331
0.70068359375	0.0006427001953125	25.5978909353715
0.6982421875	0.0006402587890625	25.6222909353099
0.69580078125	0.00063812255859375	25.6466909352483
0.693359375	0.000635986328125	25.6710909351867
0.69091796875	0.000633544921875	25.6954909351251
0.6884765625	0.00063140869140625	25.7198909350635
0.68603515625	0.0006292724609375	25.7442909350019
0.68359375	0.00062713623046875	25.7686909349403
0.68115234375	0.00062469482421875	25.7930909348787
0.6787109375	0.00062255859375	25.8174909348171
0.67626953125	0.00062042236328125	25.8418909347555
0.673828125	0.00061798095703125	25.8662909346939
0.67138671875	0.0006158447265625	25.8906909346323
0.6689453125	0.00061370849609375	25.9150909345707
0.66650390625	0.00061126708984375	25.9394909345091
0.6640625	0.000609130859375	25.9638909344475
0.66162109375	0.00060699462890625	25.9882909343859
0.6591796875	0.00060455322265625	26.0126909343243
0.65673828125	0.0006024169921875	26.0370909342627
0.654296875	0.0005999755859375	26.0614909342011
0.65185546875	0.00059783935546875	26.0858909341395
0.6494140625	0.000595703125	26.1102909340779
0.64697265625	0.00059326171875	26.1346909340162
0.64453125	0.00059112548828125	26.1590909339546
0.64208984375	0.0005889892578125	26.183490933893
0.6396484375	0.0005865478515625	26.2078909338314
0.63720703125	0.00058441162109375	26.2322909337698
0.634765625	0.000582275390625	26.2566909337082
0.63232421875	0.000579833984375	26.2810909336466
0.6298828125	0.00057769775390625	26.305490933585
0.62744140625	0.0005755615234375	26.3298909335234
0.625	0.0005731201171875	26.3542909334618
0.62255859375	0.00057098388671875	26.3786909334002
0.6201171875	0.00056884765625	26.4030909333386
0.61767578125	0.00056640625	26.427490933277
0.615234375	0.00056427001953125	26.4518909332154
0.61279296875	0.0005621337890625	26.4762909331538
0.6103515625	0.0005596923828125	26.5006909330922
0.60791015625	0.00055755615234375	26.5250909330306
0.60546875	0.00055511474609375	26.549490932969
0.60302734375	0.000552978515625	26.5738909329074
0.6005859375	0.00055084228515625	26.5982909328458
0.59814453125	0.0005487060546875	26.6226909327842
0.595703125	0.0005462646484375	26.6470909327226
0.59326171875	0.00054412841796875	26.671490932661
0.5908203125	0.0005419921875	26.6958909325994
0.58837890625	0.00053955078125	26.7202909325378
0.5859375	0.00053741455078125	26.7446909324761
0.58349609375	0.0005352783203125	26.7690909324145
0.5810546875	0.00053314208984375	26.7934909323529
0.57861328125	0.00053070068359375	26.8178909322913
0.576171875	0.000528564453125	26.8422909322297
0.57373046875	0.000526123046875	26.8666909321681
0.5712890625	0.00052398681640625	26.8910909321065
0.56884765625	0.0005218505859375	26.9154909320449
0.56640625	0.0005194091796875	26.9398909319833
0.56396484375	0.00051727294921875	26.9642909319217
0.5615234375	0.00051513671875	26.9886909318601
0.55908203125	0.0005126953125	27.0130909317985
0.556640625	0.00051055908203125	27.0374909317369
0.55419921875	0.0005084228515625	27.0618909316753
0.5517578125	0.0005059814453125	27.0862909316137
0.54931640625	0.00050384521484375	27.1106909315521
0.546875	0.000501708984375	27.1350909314905
0.54443359375	0.000499267578125	27.1594909314289
0.5419921875	0.000497039794921875	27.1838909313673
0.53955078125	0.000494781494140625	27.2082909313057
0.537109375	0.0004925537109375	27.2326909312441
0.53466796875	0.000490325927734375	27.2570909311825
0.5322265625	0.000488067626953125	27.2814909311209
0.52978515625	0.00048583984375	27.3058909310593
0.52734375	0.000483612060546875	27.3302909309976
0.52490234375	0.000481353759765625	27.354690930936
0.5224609375	0.0004791259765625	27.3790909308744
0.52001953125	0.000476898193359375	27.4034909308128
0.517578125	0.000474639892578125	27.4278909307512
0.51513671875	0.000472412109375	27.4522909306896
0.5126953125	0.00047015380859375	27.476690930628
0.51025390625	0.000467926025390625	27.5010909305664
0.5078125	0.0004656982421875	27.5254909305048
0.50537109375	0.000463470458984375	27.5498909304432
0.5029296875	0.00046124267578125	27.5742909303816
0.50048828125	0.000458984375	27.59869093032
0.498046875	0.000456756591796875	27.6230909302584
0.49560546875	0.000454498291015625	27.6474909301968
0.4931640625	0.0004522705078125	27.6718909301352
0.49072265625	0.00045001220703125	27.6962909300736
0.48828125	0.000447784423828125	27.720690930012
0.48583984375	0.000445526123046875	27.7450909299504
0.4833984375	0.00044329833984375	27.7694909298888
0.48095703125	0.000441070556640625	27.7938909298272
0.478515625	0.000438812255859375	27.8182909297656
0.47607421875	0.00043658447265625	27.842690929704
0.4736328125	0.000434356689453125	27.8670909296424
0.47119140625	0.000432098388671875	27.8914909295808
0.46875	0.00042987060546875	27.9158909295192
0.46630859375	0.000427642822265625	27.9402909294575
0.4638671875	0.000425384521484375	27.9646909293959
0.46142578125	0.00042315673828125	27.9890909293343
0.458984375	0.000420928955078125	28.0134909292727
0.45654296875	0.000418701171875	28.0378909292111
0.4541015625	0.00041644287109375	28.0622909291495
0.45166015625	0.000414215087890625	28.0866909290879
0.44921875	0.000411956787109375	28.1110909290263
0.44677734375	0.00040972900390625	28.1354909289647
0.4443359375	0.000407501220703125	28.1598909289031
0.44189453125	0.000405242919921875	28.1842909288415
0.439453125	0.00040301513671875	28.2086909287799
0.43701171875	0.0004007568359375	28.2330909287183
0.4345703125	0.000398529052734375	28.2574909286567
0.43212890625	0.00039630126953125	28.2818909285951
0.4296875	0.000394073486328125	28.3062909285335
0.42724609375	0.000391815185546875	28.3306909284719
0.4248046875	0.00038958740234375	28.3550909284103
0.42236328125	0.000387359619140625	28.3794909283487
0.419921875	0.000385101318359375	28.4038909282871
0.41748046875	0.00038287353515625	28.4282909282255
0.4150390625	0.000380645751953125	28.4526909281639
0.41259765625	0.000378387451171875	28.4770909281023
0.41015625	0.000376129150390625	28.5014909280407
0.40771484375	0.000373931884765625	28.525890927979
0.4052734375	0.0003717041015625	28.5502909279174
0.40283203125	0.00036944580078125	28.5746909278558
0.400390625	0.0003671875	28.5990909277942
0.39794921875	0.000364959716796875	28.6234909277326
0.3955078125	0.00036273193359375	28.647890927671
0.39306640625	0.000360504150390625	28.6722909276094
0.390625	0.000358245849609375	28.6966909275478
0.38818359375	0.00035601806640625	28.7210909274862
0.3857421875	0.000353759765625	28.7454909274246
0.38330078125	0.000351531982421875	28.769890927363
0.380859375	0.00034930419921875	28.7942909273014
0.37841796875	0.0003470458984375	28.8186909272398
0.3759765625	0.000344818115234375	28.8430909271782
0.37353515625	0.00034259033203125	28.8674909271166
0.37109375	0.00034033203125	28.891890927055
0.36865234375	0.000338104248046875	28.9162909269934
0.3662109375	0.00033587646484375	28.9406909269318
0.36376953125	0.0003336181640625	28.9650909268702
0.361328125	0.000331390380859375	28.9894909268086
0.35888671875	0.00032916259765625	29.013890926747
0.3564453125	0.000326904296875	29.0382909266854
0.35400390625	0.000324676513671875	29.0626909266238
0.3515625	0.000322418212890625	29.0870909265622
0.34912109375	0.0003201904296875	29.1114909265006
0.3466796875	0.000317962646484375	29.1358909264389
0.34423828125	0.00031573486328125	29.1602909263773
0.341796875	0.0003134765625	29.1846909263157
0.33935546875	0.000311248779296875	29.2090909262541
0.3369140625	0.00030902099609375	29.2334909261925
0.33447265625	0.0003067626953125	29.2578909261309
0.33203125	0.000304534912109375	29.2822909260693
0.32958984375	0.00030230712890625	29.3066909260077
0.3271484375	0.000300048828125	29.3310909259461
0.32470703125	0.000297821044921875	29.3554909258845
0.322265625	0.000295562744140625	29.3798909258229
0.31982421875	0.0002933349609375	29.4042909257613
0.3173828125	0.00029107666015625	29.4286909256997
0.31494140625	0.000288848876953125	29.4530909256381
0.3125	0.00028662109375	29.4774909255765
0.31005859375	0.000284332275390625	29.5018909255149
0.3076171875	0.0002821044921875	29.5262909254533
0.30517578125	0.000279876708984375	29.5506909253917
0.302734375	0.000277618408203125	29.5750909253301
0.30029296875	0.000275390625	29.5994909252685
0.2978515625	0.000273162841796875	29.6238909252069
0.29541015625	0.000270904541015625	29.6482909251453
0.29296875	0.0002686767578125	29.6726909250837
0.29052734375	0.000266448974609375	29.6970909250221
0.2880859375	0.000264190673828125	29.7214909249604
0.28564453125	0.000261962890625	29.7458909248988
0.283203125	0.000259735107421875	29.7702909248372
0.28076171875	0.000257476806640625	29.7946909247756
0.2783203125	0.0002552490234375	29.819090924714
0.27587890625	0.00025299072265625	29.8434909246524
0.2734375	0.000250762939453125	29.8678909245908
0.27099609375	0.00024853515625	29.8922909245292
0.2685546875	0.000246307373046875	29.9166909244676
0.26611328125	0.000244049072265625	29.941090924406
0.263671875	0.0002418212890625	29.9654909243444
0.26123046875	0.000239593505859375	29.9898909242828
0.2587890625	0.00023736572265625	30.0142909242212
0.25634765625	0.000235107421875	30.0386909241596
0.25390625	0.000232879638671875	30.063090924098
0.25146484375	0.000230621337890625	30.0874909240364
0.2490234375	0.0002283935546875	30.1118909239748
0.24658203125	0.000226165771484375	30.1362909239132
0.244140625	0.00022393798828125	30.1606909238516
0.24169921875	0.0002216796875	30.18509092379
0.2392578125	0.00021942138671875	30.2094909237284
0.23681640625	0.000217193603515625	30.2338909236668
0.234375	0.0002149658203125	30.2582909236052
0.23193359375	0.00021270751953125	30.2826909235436
0.2294921875	0.000210479736328125	30.307090923482
0.22705078125	0.000208251953125	30.3314909234203
0.224609375	0.00020599365234375	30.3558909233587
0.22216796875	0.000203765869140625	30.3802909232971
0.2197265625	0.0002015380859375	30.4046909232355
0.21728515625	0.000199310302734375	30.4290909231739
0.21484375	0.000197052001953125	30.4534909231123
0.21240234375	0.00019482421875	30.4778909230507
0.2099609375	0.00019256591796875	30.5022909229891
0.20751953125	0.000190338134765625	30.5266909229275
0.205078125	0.000188079833984375	30.5510909228659
0.20263671875	0.00018585205078125	30.5754909228043
0.2001953125	0.000183624267578125	30.5998909227427
0.19775390625	0.000181365966796875	30.6242909226811
0.1953125	0.00017913818359375	30.6486909226195
0.19287109375	0.000176910400390625	30.6730909225579
0.1904296875	0.000174652099609375	30.6974909224963
0.18798828125	0.00017242431640625	30.7218909224347
0.185546875	0.000170196533203125	30.7462909223731
0.18310546875	0.000167938232421875	30.7706909223115
0.1806640625	0.00016571044921875	30.7950909222499
0.17822265625	0.000163482666015625	30.8194909221883
0.17578125	0.000161224365234375	30.8438909221267
0.17333984375	0.00015899658203125	30.8682909220651
0.1708984375	0.00015673828125	30.8926909220035
0.16845703125	0.000154510498046875	30.9170909219418
0.166015625	0.00015228271484375	30.9414909218802
0.16357421875	0.0001500244140625	30.9658909218186
0.1611328125	0.000147796630859375	30.990290921757
0.15869140625	0.00014556884765625	31.0146909216954
0.15625	0.000143310546875	31.0390909216338
0.15380859375	0.000141082763671875	31.0634909215722
0.1513671875	0.00013885498046875	31.0878909215106
0.14892578125	0.0001365966796875	31.112290921449
0.146484375	0.000134368896484375	31.1366909213874
0.14404296875	0.00013214111328125	31.1610909213258
0.1416015625	0.0001298828125	31.1854909212642
0.13916015625	0.000127655029296875	31.2098909212026
0.13671875	0.00012542724609375	31.234290921141
0.13427734375	0.0001231689453125	31.2586909210794
0.1318359375	0.000120941162109375	31.2830909210178
0.12939453125	0.00011871337890625	31.3074909209562
0.126953125	0.000116455078125	31.3318909208946
0.12451171875	0.000114227294921875	31.356290920833
0.1220703125	0.000111968994140625	31.3806909207714
0.11962890625	0.0001097412109375	31.4050909207098
0.1171875	0.000107513427734375	31.4294909206482
0.11474609375	0.00010528564453125	31.4538909205866
0.1123046875	0.00010302734375	31.478290920525
0.10986328125	0.000100799560546875	31.5026909204634
0.107421875	9.857177734375E-05	31.5270909204017
0.10498046875	9.63134765625E-05	31.5514909203401
0.1025390625	9.4085693359375E-05	31.5758909202785
0.10009765625	9.185791015625E-05	31.6002909202169
0.09765625	8.9599609375E-05	31.6246909201553
0.09521484375	8.734130859375E-05	31.6490909200937
0.0927734375	8.5113525390625E-05	31.6734909200321
0.09033203125	8.28857421875E-05	31.6978909199705
0.087890625	8.062744140625E-05	31.7222909199089
0.08544921875	7.8399658203125E-05	31.7466909198473
0.0830078125	7.6171875E-05	31.7710909197857
0.08056640625	7.391357421875E-05	31.7954909197241
0.078125	7.1685791015625E-05	31.8198909196625
0.07568359375	6.94580078125E-05	31.8442909196009
0.0732421875	6.719970703125E-05	31.8686909195393
0.07080078125	6.494140625E-05	31.8930909194777
0.068359375	6.2713623046875E-05	31.9174909194161
0.06591796875	6.048583984375E-05	31.9418909193545
0.0634765625	5.8258056640625E-05	31.9662909192929
0.06103515625	5.5999755859375E-05	31.9906909192313
0.05859375	5.377197265625E-05	32.0150909191697
0.05615234375	5.1544189453125E-05	32.0394909191081
0.0537109375	4.92919921875E-05	32.0638909190465
0.05126953125	4.7052001953125E-05	32.0882909189849
0.048828125	4.481201171875E-05	32.1126909189232
0.04638671875	4.25811767578125E-05	32.1370909188616
0.0439453125	4.03350830078125E-05	32.1614909188
0.04150390625	3.80950927734375E-05	32.1858909187384
0.0390625	3.58551025390625E-05	32.2102909186768
0.03662109375	3.3642578125E-05	32.2346909186152
0.0341796875	3.1396484375E-05	32.2590909185536
0.03173828125	2.91656494140625E-05	32.283490918492
0.029296875	2.69256591796875E-05	32.3078909184304
0.02685546875	2.46856689453125E-05	32.3322909183688
0.0244140625	2.244873046875E-05	32.3566909183072
0.02197265625	2.02117919921875E-05	32.3810909182456
0.01953125	1.796875E-05	32.405490918184
0.01708984375	1.5728759765625E-05	32.4298909181224
0.0146484375	1.35009765625E-05	32.4542909180608
0.01220703125	1.12548828125E-05	32.4786909179992
0.009765625	9.0179443359375E-06	32.5030909179376
0.00732421875	6.7840576171875E-06	32.527490917876
0.0048828125	4.54986572265625E-06	32.5518909178144
0.00244140625	2.29827880859375E-06	32.5762909177528
0	6.83593750000003E-08	32.6006909176912
-0.00244140625	-2.17620849609375E-06	32.6250909176296
-0.0048828125	-4.41497802734375E-06	32.649490917568
-0.00732421875	-6.6497802734375E-06	32.6738909175064
-0.009765625	-8.8897705078125E-06	32.6982909174448
-0.01220703125	-1.1126708984375E-05	32.7226909173831
-0.0146484375	-1.33575439453125E-05	32.7470909173215
-0.01708984375	-1.55975341796875E-05	32.7714909172599
-0.01953125	-1.78466796875E-05	32.7958909171983
-0.02197265625	-2.00775146484375E-05	32.8202909171367
-0.0244140625	-2.23175048828125E-05	32.8446909170751
-0.02685546875	-2.4554443359375E-05	32.8690909170135
-0.029296875	-2.6800537109375E-05	32.8934909169519
-0.03173828125	-2.90283203125E-05	32.9178909168903
-0.0341796875	-3.12713623046875E-05	32.9422909168287
-0.03662109375	-3.35113525390625E-05	32.9666909167671
-0.0390625	-3.5748291015625E-05	32.9910909167055
-0.04150390625	-3.7969970703125E-05	33.0154909166439
-0.0439453125	-4.02130126953125E-05	33.0398909165823
-0.04638671875	-4.24468994140625E-05	33.0642909165207
-0.048828125	-4.4683837890625E-05	33.0886909164591
-0.05126953125	-4.6929931640625E-05	33.1130909163975
-0.0537109375	-4.915771484375E-05	33.1374909163359
-0.05615234375	-5.1422119140625E-05	33.1618909162743
-0.05859375	-5.3680419921875E-05	33.1862909162127
-0.06103515625	-5.5908203125E-05	33.2106909161511
-0.0634765625	-5.8135986328125E-05	33.2350909160895
-0.06591796875	-6.036376953125E-05	33.2594909160279
-0.068359375	-6.26220703125E-05	33.2838909159663
-0.07080078125	-6.4849853515625E-05	33.3082909159046
-0.0732421875	-6.7108154296875E-05	33.332690915843
-0.07568359375	-6.93359375E-05	33.3570909157814
-0.078125	-7.1563720703125E-05	33.3814909157198
-0.08056640625	-7.3822021484375E-05	33.4058909156582
-0.0830078125	-7.60498046875E-05	33.4302909155966
-0.08544921875	-7.8277587890625E-05	33.454690915535
-0.087890625	-8.0535888671875E-05	33.4790909154734
-0.09033203125	-8.2763671875E-05	33.5034909154118
-0.0927734375	-8.502197265625E-05	33.5278909153502
-0.09521484375	-8.7249755859375E-05	33.5522909152886
-0.09765625	-8.9508056640625E-05	33.576690915227
-0.10009765625	-9.173583984375E-05	33.6010909151654
-0.1025390625	-9.3963623046875E-05	33.6254909151038
-0.10498046875	-9.619140625E-05	33.6498909150422
-0.107421875	-9.844970703125E-05	33.6742909149806
-0.10986328125	-0.000100677490234375	33.698690914919
-0.1123046875	-0.0001029052734375	33.7230909148574
-0.11474609375	-0.00010516357421875	33.7474909147958
-0.1171875	-0.000107391357421875	33.7718909147342
-0.11962890625	-0.000109649658203125	33.7962909146726
-0.1220703125	-0.000111846923828125	33.820690914611
-0.12451171875	-0.000114105224609375	33.8450909145494
-0.126953125	-0.0001163330078125	33.8694909144878
-0.12939453125	-0.00011859130859375	33.8938909144262
-0.1318359375	-0.000120819091796875	33.9182909143645
-0.13427734375	-0.000123077392578125	33.9426909143029
-0.13671875	-0.00012530517578125	33.9670909142413
-0.13916015625	-0.000127532958984375	33.9914909141797
-0.1416015625	-0.0001297607421875	34.0158909141181
-0.14404296875	-0.00013201904296875	34.0402909140565
-0.146484375	-0.000134246826171875	34.0646909139949
-0.14892578125	-0.000136474609375	34.0890909139333
-0.1513671875	-0.00013873291015625	34.1134909138717
-0.15380859375	-0.000140960693359375	34.1378909138101
-0.15625	-0.000143218994140625	34.1622909137485
-0.15869140625	-0.00014544677734375	34.1866909136869
-0.1611328125	-0.000147674560546875	34.2110909136253
-0.16357421875	-0.00014990234375	34.2354909135637
-0.166015625	-0.00015216064453125	34.2598909135021
-0.16845703125	-0.000154388427734375	34.2842909134405
-0.1708984375	-0.0001566162109375	34.3086909133789
-0.17333984375	-0.00015887451171875	34.3330909133173
-0.17578125	-0.000161102294921875	34.3574909132557
-0.17822265625	-0.000163360595703125	34.3818909131941
-0.1806640625	-0.00016558837890625	34.4062909131325
-0.18310546875	-0.000167816162109375	34.4306909130709
-0.185546875	-0.0001700439453125	34.4550909130093
-0.18798828125	-0.00017230224609375	34.4794909129477
-0.1904296875	-0.000174530029296875	34.5038909128861
-0.19287109375	-0.000176788330078125	34.5282909128244
-0.1953125	-0.00017901611328125	34.5526909127628
-0.19775390625	-0.000181243896484375	34.5770909127012
-0.2001953125	-0.0001834716796875	34.6014909126396
-0.20263671875	-0.00018572998046875	34.625890912578
-0.205078125	-0.000187957763671875	34.6502909125164
-0.20751953125	-0.000190185546875	34.6746909124548
-0.2099609375	-0.00019244384765625	34.6990909123932
-0.21240234375	-0.000194671630859375	34.7234909123316
-0.21484375	-0.000196929931640625	34.74789091227
-0.21728515625	-0.00019915771484375	34.7722909122084
-0.2197265625	-0.000201416015625	34.7966909121468
-0.22216796875	-0.000203643798828125	34.8210909120852
-0.224609375	-0.00020587158203125	34.8454909120236
-0.22705078125	-0.0002081298828125	34.869890911962
-0.2294921875	-0.000210357666015625	34.8942909119004
-0.23193359375	-0.00021258544921875	34.9186909118388
-0.234375	-0.00021484375	34.9430909117772
-0.23681640625	-0.000217071533203125	34.9674909117156
-0.2392578125	-0.00021929931640625	34.991890911654
-0.24169921875	-0.0002215576171875	35.0162909115924
-0.244140625	-0.000223785400390625	35.0406909115308
-0.24658203125	-0.00022601318359375	35.0650909114692
-0.2490234375	-0.000228271484375	35.0894909114076
-0.25146484375	-0.000230499267578125	35.1138909113459
-0.25390625	-0.00023272705078125	35.1382909112843
-0.25634765625	-0.0002349853515625	35.1626909112227
-0.2587890625	-0.000237213134765625	35.1870909111611
-0.26123046875	-0.000239471435546875	35.2114909110995
-0.263671875	-0.00024169921875	35.2358909110379
-0.26611328125	-0.000243927001953125	35.2602909109763
-0.2685546875	-0.000246185302734375	35.2846909109147
-0.27099609375	-0.0002484130859375	35.3090909108531
-0.2734375	-0.000250640869140625	35.3334909107915
-0.27587890625	-0.000252899169921875	35.3578909107299
-0.2783203125	-0.000255126953125	35.3822909106683
-0.28076171875	-0.000257354736328125	35.4066909106067
-0.283203125	-0.00025958251953125	35.4310909105451
-0.28564453125	-0.0002618408203125	35.4554909104835
-0.2880859375	-0.000264068603515625	35.4798909104219
-0.29052734375	-0.000266326904296875	35.5042909103603
-0.29296875	-0.0002685546875	35.5286909102987
-0.29541015625	-0.000270782470703125	35.5530909102371
-0.2978515625	-0.000273040771484375	35.5774909101755
-0.30029296875	-0.0002752685546875	35.6018909101139
-0.302734375	-0.00027752685546875	35.6262909100523
-0.30517578125	-0.000279754638671875	35.6506909099907
-0.3076171875	-0.000281982421875	35.6750909099291
-0.31005859375	-0.00028424072265625	35.6994909098675
-0.3125	-0.000286468505859375	35.7238909098058
-0.31494140625	-0.000288726806640625	35.7482909097442
-0.3173828125	-0.00029095458984375	35.7726909096826
-0.31982421875	-0.000293212890625	35.797090909621
-0.322265625	-0.000295440673828125	35.8214909095594
-0.32470703125	-0.000297698974609375	35.8458909094978
-0.3271484375	-0.0002999267578125	35.8702909094362
-0.32958984375	-0.00030218505859375	35.8946909093746
-0.33203125	-0.000304534912109375	35.919090909313
-0.33447265625	-0.0003067626953125	35.9434909092514
-0.3369140625	-0.00030902099609375	35.9678909091898
-0.33935546875	-0.000311248779296875	35.9922909091282
-0.341796875	-0.0003134765625	36.0166909090666
-0.34423828125	-0.00031573486328125	36.041090909005
-0.3466796875	-0.000317962646484375	36.0654909089434
-0.34912109375	-0.0003201904296875	36.0898909088818
-0.3515625	-0.00032244873046875	36.1142909088202
-0.35400390625	-0.000324676513671875	36.1386909087586
-0.3564453125	-0.000326904296875	36.163090908697
-0.35888671875	-0.00032916259765625	36.1874909086354
-0.361328125	-0.000331390380859375	36.2118909085738
-0.36376953125	-0.0003336181640625	36.2362909085122
-0.3662109375	-0.00033587646484375	36.2606909084506
-0.36865234375	-0.000338104248046875	36.285090908389
-0.37109375	-0.000340362548828125	36.3094909083273
-0.37353515625	-0.00034259033203125	36.3338909082657
-0.3759765625	-0.0003448486328125	36.3582909082041
-0.37841796875	-0.000347076416015625	36.3826909081425
-0.380859375	-0.00034930419921875	36.4070909080809
-0.38330078125	-0.0003515625	36.4314909080193
-0.3857421875	-0.000353790283203125	36.4558909079577
-0.38818359375	-0.000356048583984375	36.4802909078961
-0.390625	-0.0003582763671875	36.5046909078345
-0.39306640625	-0.00036053466796875	36.5290909077729
-0.3955078125	-0.000362762451171875	36.5534909077113
-0.39794921875	-0.000364990234375	36.5778909076497
-0.400390625	-0.00036724853515625	36.6022909075881
-0.40283203125	-0.000369476318359375	36.6266909075265
-0.4052734375	-0.000371734619140625	36.6510909074649
-0.40771484375	-0.00037396240234375	36.6754909074033
-0.41015625	-0.000376190185546875	36.6998909073417
-0.41259765625	-0.00037841796875	36.7242909072801
-0.4150390625	-0.000380645751953125	36.7486909072185
-0.41748046875	-0.000382904052734375	36.7730909071569
-0.419921875	-0.0003851318359375	36.7974909070953
-0.42236328125	-0.00038739013671875	36.8218909070337
-0.4248046875	-0.000389617919921875	36.8462909069721
-0.42724609375	-0.000391876220703125	36.8706909069105
-0.4296875	-0.00039410400390625	36.8950909068489
-0.43212890625	-0.000396331787109375	36.9194909067872
-0.4345703125	-0.0003985595703125	36.9438909067256
-0.43701171875	-0.00040081787109375	36.968290906664
-0.439453125	-0.000403045654296875	36.9926909066024
-0.44189453125	-0.0004052734375	37.0170909065408
-0.4443359375	-0.00040753173828125	37.0414909064792
-0.44677734375	-0.000409759521484375	37.0658909064176
-0.44921875	-0.000412017822265625	37.090290906356
-0.45166015625	-0.00041424560546875	37.1146909062944
-0.4541015625	-0.00041650390625	37.1390909062328
-0.45654296875	-0.000418731689453125	37.1634909061712
-0.458984375	-0.00042095947265625	37.1878909061096
-0.46142578125	-0.0004232177734375	37.212290906048
-0.4638671875	-0.00042547607421875	37.2366909059864
-0.46630859375	-0.000427703857421875	37.2610909059248
-0.46875	-0.000429931640625	37.2854909058632
-0.47119140625	-0.000432159423828125	37.3098909058016
-0.4736328125	-0.000434417724609375	37.33429090574
-0.47607421875	-0.0004366455078125	37.3586909056784
-0.478515625	-0.000438873291015625	37.3830909056168
-0.48095703125	-0.000441131591796875	37.4074909055552
-0.4833984375	-0.000443359375	37.4318909054936
-0.48583984375	-0.00044561767578125	37.456290905432
-0.48828125	-0.000447845458984375	37.4806909053704
-0.49072265625	-0.000450103759765625	37.5050909053087
-0.4931640625	-0.00045233154296875	37.5294909052471
-0.49560546875	-0.000454559326171875	37.5538909051855
-0.498046875	-0.000456817626953125	37.5782909051239
-0.50048828125	-0.00045904541015625	37.6026909050623
-0.5029296875	-0.0004613037109375	37.6270909050007
-0.50537109375	-0.000463531494140625	37.6514909049391
-0.5078125	-0.000465789794921875	37.6758909048775
-0.51025390625	-0.000468017578125	37.7002909048159
-0.5126953125	-0.000470245361328125	37.7246909047543
-0.51513671875	-0.00047247314453125	37.7490909046927
-0.517578125	-0.000474700927734375	37.7734909046311
-0.52001953125	-0.000476959228515625	37.7978909045695
-0.5224609375	-0.00047918701171875	37.8222909045079
-0.52490234375	-0.0004814453125	37.8466909044463
-0.52734375	-0.000483673095703125	37.8710909043847
-0.52978515625	-0.000485931396484375	37.8954909043231
-0.5322265625	-0.0004881591796875	37.9198909042615
-0.53466796875	-0.00049041748046875	37.9442909041999
-0.537109375	-0.000492645263671875	37.9686909041383
-0.53955078125	-0.000494873046875	37.9930909040767
-0.5419921875	-0.00049713134765625	38.0174909040151
-0.54443359375	-0.000499359130859375	38.0418909039535
-0.546875	-0.000501708984375	38.0662909038919
-0.54931640625	-0.000504150390625	38.0906909038303
-0.5517578125	-0.00050628662109375	38.1150909037686
-0.55419921875	-0.0005084228515625	38.139490903707
-0.556640625	-0.0005108642578125	38.1638909036454
-0.55908203125	-0.00051300048828125	38.1882909035838
-0.5615234375	-0.00051513671875	38.2126909035222
-0.56396484375	-0.000517578125	38.2370909034606
-0.56640625	-0.00051971435546875	38.261490903399
-0.56884765625	-0.0005218505859375	38.2858909033374
-0.5712890625	-0.0005242919921875	38.3102909032758
-0.57373046875	-0.00052642822265625	38.3346909032142
-0.576171875	-0.000528564453125	38.3590909031526
-0.57861328125	-0.000531005859375	38.383490903091
-0.5810546875	-0.00053314208984375	38.4078909030294
-0.58349609375	-0.0005352783203125	38.4322909029678
-0.5859375	-0.0005377197265625	38.4566909029062
-0.58837890625	-0.00053985595703125	38.4810909028446
-0.5908203125	-0.0005419921875	38.505490902783
-0.59326171875	-0.00054443359375	38.5298909027214
-0.595703125	-0.00054656982421875	38.5542909026598
-0.59814453125	-0.0005487060546875	38.5786909025982
-0.6005859375	-0.0005511474609375	38.6030909025366
-0.60302734375	-0.00055328369140625	38.627490902475
-0.60546875	-0.000555419921875	38.6518909024134
-0.60791015625	-0.000557861328125	38.6762909023518
-0.6103515625	-0.00055999755859375	38.7006909022901
-0.61279296875	-0.0005621337890625	38.7250909022285
-0.615234375	-0.0005645751953125	38.7494909021669
-0.61767578125	-0.00056671142578125	38.7738909021053
-0.6201171875	-0.00056884765625	38.7982909020437
-0.62255859375	-0.0005712890625	38.8226909019821
-0.625	-0.00057342529296875	38.8470909019205
-0.62744140625	-0.0005755615234375	38.8714909018589
-0.6298828125	-0.0005780029296875	38.8958909017973
-0.63232421875	-0.00058013916015625	38.9202909017357
-0.634765625	-0.000582275390625	38.9446909016741
-0.63720703125	-0.000584716796875	38.9690909016125
-0.6396484375	-0.00058685302734375	38.9934909015509
-0.64208984375	-0.00058929443359375	39.0178909014893
-0.64453125	-0.0005914306640625	39.0422909014277
-0.64697265625	-0.00059356689453125	39.0666909013661
-0.6494140625	-0.000595703125	39.0910909013045
-0.65185546875	-0.00059814453125	39.1154909012429
-0.654296875	-0.00060028076171875	39.1398909011813
-0.65673828125	-0.0006024169921875	39.1642909011197
-0.6591796875	-0.0006048583984375	39.1886909010581
-0.66162109375	-0.00060699462890625	39.2130909009965
-0.6640625	-0.00060943603515625	39.2374909009349
-0.66650390625	-0.000611572265625	39.2618909008733
-0.6689453125	-0.00061370849609375	39.2862909008117
-0.67138671875	-0.00061614990234375	39.31069090075
-0.673828125	-0.0006182861328125	39.3350909006884
-0.67626953125	-0.00062042236328125	39.3594909006268
-0.6787109375	-0.00062255859375	39.3838909005652
-0.68115234375	-0.000625	39.4082909005036
-0.68359375	-0.00062713623046875	39.432690900442
-0.68603515625	-0.0006292724609375	39.4570909003804
-0.6884765625	-0.0006317138671875	39.4814909003188
-0.69091796875	-0.00063385009765625	39.5058909002572
-0.693359375	-0.00063629150390625	39.5302909001956
-0.69580078125	-0.000638427734375	39.554690900134
-0.6982421875	-0.00064056396484375	39.5790909000724
-0.70068359375	-0.0006427001953125	39.6034909000108
-0.703125	-0.0006451416015625	39.6278908999492
-0.70556640625	-0.00064727783203125	39.6522908998876
-0.7080078125	-0.00064971923828125	39.676690899826
-0.71044921875	-0.00065185546875	39.7010908997644
-0.712890625	-0.00065399169921875	39.7254908997028
-0.71533203125	-0.00065643310546875	39.7498908996412
-0.7177734375	-0.0006585693359375	39.7742908995796
-0.72021484375	-0.00066070556640625	39.798690899518
-0.72265625	-0.000662841796875	39.8230908994564
-0.72509765625	-0.000665283203125	39.8474908993948
-0.7275390625	-0.00066741943359375	39.8718908993332
-0.72998046875	-0.00066986083984375	39.8962908992715
-0.732421875	-0.0006719970703125	39.9206908992099
-0.73486328125	-0.00067413330078125	39.9450908991483
-0.7373046875	-0.00067657470703125	39.9694908990867
-0.73974609375	-0.0006787109375	39.9938908990251
-0.7421875	-0.00068084716796875	40.0182908989635
-0.74462890625	-0.00068328857421875	40.0426908989019
-0.7470703125	-0.0006854248046875	40.0670908988403
-0.74951171875	-0.00068756103515625	40.0914908987787
-0.751953125	-0.00069000244140625	40.1158908987171
-0.75439453125	-0.000692138671875	40.1402908986555
-0.7568359375	-0.00069427490234375	40.1646908985939
-0.75927734375	-0.00069671630859375	40.1890908985323
-0.76171875	-0.0006988525390625	40.2134908984707
-0.76416015625	-0.00070098876953125	40.2378908984091
-0.7666015625	-0.00070343017578125	40.2622908983475
-0.76904296875	-0.00070556640625	40.2866908982859
-0.771484375	-0.00070770263671875	40.3110908982243
-0.77392578125	-0.00071014404296875	40.3354908981627
-0.7763671875	-0.0007122802734375	40.3598908981011
-0.77880859375	-0.00071441650390625	40.3842908980395
-0.78125	-0.00071685791015625	40.4086908979779
-0.78369140625	-0.000718994140625	40.4330908979163
-0.7861328125	-0.00072113037109375	40.4574908978547
-0.78857421875	-0.00072357177734375	40.4818908977931
-0.791015625	-0.0007257080078125	40.5062908977314
-0.79345703125	-0.00072784423828125	40.5306908976698
-0.7958984375	-0.00073028564453125	40.5550908976082
-0.79833984375	-0.000732421875	40.5794908975466
-0.80078125	-0.00073455810546875	40.603890897485
-0.80322265625	-0.0007366943359375	40.6282908974234
-0.8056640625	-0.0007391357421875	40.6526908973618
-0.80810546875	-0.00074127197265625	40.6770908973002
-0.810546875	-0.00074371337890625	40.7014908972386
-0.81298828125	-0.000745849609375	40.725890897177
-0.8154296875	-0.00074798583984375	40.7502908971154
-0.81787109375	-0.00075042724609375	40.7746908970538
-0.8203125	-0.0007525634765625	40.7990908969922
-0.82275390625	-0.00075469970703125	40.8234908969306
-0.8251953125	-0.00075714111328125	40.847890896869
-0.82763671875	-0.00075927734375	40.8722908968074
-0.830078125	-0.00076141357421875	40.8966908967458
-0.83251953125	-0.00076385498046875	40.9210908966842
-0.8349609375	-0.0007659912109375	40.9454908966226
-0.83740234375	-0.00076812744140625	40.969890896561
-0.83984375	-0.00077056884765625	40.9942908964994
-0.84228515625	-0.000772705078125	41.0186908964378
-0.8447265625	-0.00077484130859375	41.0430908963762
-0.84716796875	-0.00077728271484375	41.0674908963146
-0.849609375	-0.0007794189453125	41.0918908962529
-0.85205078125	-0.00078155517578125	41.1162908961913
-0.8544921875	-0.00078399658203125	41.1406908961297
-0.85693359375	-0.0007861328125	41.1650908960681
-0.859375	-0.00078826904296875	41.1894908960065
-0.86181640625	-0.00079071044921875	41.2138908959449
-0.8642578125	-0.0007928466796875	41.2382908958833
-0.86669921875	-0.00079498291015625	41.2626908958217
-0.869140625	-0.00079742431640625	41.2870908957601
-0.87158203125	-0.000799560546875	41.3114908956985
-0.8740234375	-0.00080169677734375	41.3358908956369
-0.87646484375	-0.00080413818359375	41.3602908955753
-0.87890625	-0.0008062744140625	41.3846908955137
-0.88134765625	-0.00080841064453125	41.4090908954521
-0.8837890625	-0.00081085205078125	41.4334908953905
-0.88623046875	-0.00081298828125	41.4578908953289
-0.888671875	-0.00081512451171875	41.4822908952673
-0.89111328125	-0.00081756591796875	41.5066908952057
-0.8935546875	-0.0008197021484375	41.5310908951441
-0.89599609375	-0.0008221435546875	41.5554908950825
-0.8984375	-0.00082427978515625	41.5798908950209
-0.90087890625	-0.000826416015625	41.6042908949593
-0.9033203125	-0.000828857421875	41.6286908948977
-0.90576171875	-0.00083099365234375	41.6530908948361
-0.908203125	-0.0008331298828125	41.6774908947745
-0.91064453125	-0.0008355712890625	41.7018908947128
-0.9130859375	-0.00083770751953125	41.7262908946512
-0.91552734375	-0.00083984375	41.7506908945896
-0.91796875	-0.00084228515625	41.775090894528
-0.92041015625	-0.00084442138671875	41.7994908944664
-0.9228515625	-0.0008465576171875	41.8238908944048
-0.92529296875	-0.0008489990234375	41.8482908943432
-0.927734375	-0.00085113525390625	41.8726908942816
-0.93017578125	-0.000853271484375	41.89709089422
-0.9326171875	-0.000855712890625	41.9214908941584
-0.93505859375	-0.00085784912109375	41.9458908940968
-0.9375	-0.0008599853515625	41.9702908940352
-0.93994140625	-0.0008624267578125	41.9946908939736
-0.9423828125	-0.00086456298828125	42.019090893912
-0.94482421875	-0.00086669921875	42.0434908938504
-0.947265625	-0.000869140625	42.0678908937888
-0.94970703125	-0.00087127685546875	42.0922908937272
-0.9521484375	-0.0008734130859375	42.1166908936656
-0.95458984375	-0.0008758544921875	42.141090893604
-0.95703125	-0.00087799072265625	42.1654908935424
-0.95947265625	-0.000880126953125	42.1898908934808
-0.9619140625	-0.000882568359375	42.2142908934192
-0.96435546875	-0.00088470458984375	42.2386908933576
-0.966796875	-0.0008868408203125	42.263090893296
-0.96923828125	-0.0008892822265625	42.2874908932343
-0.9716796875	-0.00089141845703125	42.3118908931727
-0.97412109375	-0.0008935546875	42.3362908931111
-0.9765625	-0.00089569091796875	42.3606908930495
-0.97900390625	-0.00089813232421875	42.3850908929879
-0.9814453125	-0.0009002685546875	42.4094908929263
-0.98388671875	-0.0009027099609375	42.4338908928647
-0.986328125	-0.00090484619140625	42.4582908928031
-0.98876953125	-0.000906982421875	42.4826908927415
-0.9912109375	-0.000909423828125	42.5070908926799
-0.99365234375	-0.00091156005859375	42.5314908926183
-0.99609375	-0.0009136962890625	42.5558908925567
-0.99853515625	-0.0009161376953125	42.5802908924951
-1.0009765625	-0.00091827392578125	42.6046908924335
-0.99853515625	-0.0009161376953125	42.6290908923719
-0.99609375	-0.0009136962890625	42.6534908923103
-0.99365234375	-0.00091156005859375	42.6778908922487
-0.9912109375	-0.000909423828125	42.7022908921871
-0.98876953125	-0.000906982421875	42.7266908921255
-0.986328125	-0.00090484619140625	42.7510908920639
-0.98388671875	-0.0009027099609375	42.7754908920023
-0.9814453125	-0.0009002685546875	42.7998908919407
-0.97900390625	-0.00089813232421875	42.8242908918791
-0.9765625	-0.00089599609375	42.8486908918175
-0.97412109375	-0.0008935546875	42.8730908917559
-0.9716796875	-0.00089141845703125	42.8974908916942
-0.96923828125	-0.0008892822265625	42.9218908916326
-0.966796875	-0.0008868408203125	42.946290891571
-0.96435546875	-0.00088470458984375	42.9706908915094
-0.9619140625	-0.000882568359375	42.9950908914478
-0.95947265625	-0.000880126953125	43.0194908913862
-0.95703125	-0.00087799072265625	43.0438908913246
-0.95458984375	-0.00087554931640625	43.068290891263
-0.9521484375	-0.0008734130859375	43.0926908912014
-0.94970703125	-0.00087127685546875	43.1170908911398
-0.947265625	-0.000869140625	43.1414908910782
-0.94482421875	-0.00086669921875	43.1658908910166
-0.9423828125	-0.00086456298828125	43.190290890955
-0.93994140625	-0.0008624267578125	43.2146908908934
-0.9375	-0.0008599853515625	43.2390908908318
-0.93505859375	-0.00085784912109375	43.2634908907702
-0.9326171875	-0.000855712890625	43.2878908907086
-0.93017578125	-0.000853271484375	43.312290890647
-0.927734375	-0.00085113525390625	43.3366908905854
-0.92529296875	-0.0008489990234375	43.3610908905238
-0.9228515625	-0.0008465576171875	43.3854908904622
-0.92041015625	-0.00084442138671875	43.4098908904006
-0.91796875	-0.00084228515625	43.434290890339
-0.91552734375	-0.00083984375	43.4586908902774
-0.9130859375	-0.00083770751953125	43.4830908902157
-0.91064453125	-0.0008355712890625	43.5074908901541
-0.908203125	-0.0008331298828125	43.5318908900925
-0.90576171875	-0.00083099365234375	43.5562908900309
-0.9033203125	-0.00082855224609375	43.5806908899693
-0.90087890625	-0.000826416015625	43.6050908899077
-0.8984375	-0.00082427978515625	43.6294908898461
-0.89599609375	-0.0008221435546875	43.6538908897845
-0.8935546875	-0.0008197021484375	43.6782908897229
-0.89111328125	-0.00081756591796875	43.7026908896613
-0.888671875	-0.00081512451171875	43.7270908895997
-0.88623046875	-0.00081298828125	43.7514908895381
-0.8837890625	-0.00081085205078125	43.7758908894765
-0.88134765625	-0.00080841064453125	43.8002908894149
-0.87890625	-0.0008062744140625	43.8246908893533
-0.87646484375	-0.00080413818359375	43.8490908892917
-0.8740234375	-0.00080169677734375	43.8734908892301
-0.87158203125	-0.000799560546875	43.8978908891685
-0.869140625	-0.00079742431640625	43.9222908891069
-0.86669921875	-0.00079498291015625	43.9466908890453
-0.8642578125	-0.0007928466796875	43.9710908889837
-0.86181640625	-0.00079071044921875	43.9954908889221
-0.859375	-0.00078826904296875	44.0198908888605
-0.85693359375	-0.0007861328125	44.0442908887989
-0.8544921875	-0.00078399658203125	44.0686908887373
-0.85205078125	-0.00078155517578125	44.0930908886756
-0.849609375	-0.0007794189453125	44.117490888614
-0.84716796875	-0.00077728271484375	44.1418908885524
-0.8447265625	-0.00077484130859375	44.1662908884908
-0.84228515625	-0.000772705078125	44.1906908884292
-0.83984375	-0.00077056884765625	44.2150908883676
-0.83740234375	-0.00076812744140625	44.239490888306
-0.8349609375	-0.0007659912109375	44.2638908882444
-0.83251953125	-0.00076385498046875	44.2882908881828
-0.830078125	-0.00076141357421875	44.3126908881212
-0.82763671875	-0.00075927734375	44.3370908880596
-0.8251953125	-0.00075714111328125	44.361490887998
-0.82275390625	-0.00075469970703125	44.3858908879364
-0.8203125	-0.0007525634765625	44.4102908878748
-0.81787109375	-0.00075042724609375	44.4346908878132
-0.8154296875	-0.00074798583984375	44.4590908877516
-0.81298828125	-0.000745849609375	44.48349088769
-0.810546875	-0.00074371337890625	44.5078908876284
-0.80810546875	-0.00074127197265625	44.5322908875668
-0.8056640625	-0.0007391357421875	44.5566908875052
-0.80322265625	-0.00073699951171875	44.5810908874436
-0.80078125	-0.00073455810546875	44.605490887382
-0.79833984375	-0.000732421875	44.6298908873204
-0.7958984375	-0.00073028564453125	44.6542908872588
-0.79345703125	-0.00072784423828125	44.6786908871971
-0.791015625	-0.0007257080078125	44.7030908871355
-0.78857421875	-0.00072357177734375	44.7274908870739
-0.7861328125	-0.00072113037109375	44.7518908870123
-0.78369140625	-0.000718994140625	44.7762908869507
-0.78125	-0.000716552734375	44.8006908868891
-0.77880859375	-0.00071441650390625	44.8250908868275
-0.7763671875	-0.0007122802734375	44.8494908867659
-0.77392578125	-0.00071014404296875	44.8738908867043
-0.771484375	-0.00070770263671875	44.8982908866427
-0.76904296875	-0.00070556640625	44.9226908865811
-0.7666015625	-0.00070343017578125	44.9470908865195
-0.76416015625	-0.00070098876953125	44.9714908864579
-0.76171875	-0.0006988525390625	44.9958908863963
-0.75927734375	-0.00069671630859375	45.0202908863347
-0.7568359375	-0.00069427490234375	45.0446908862731
-0.75439453125	-0.000692138671875	45.0690908862115
-0.751953125	-0.00069000244140625	45.0934908861499
-0.74951171875	-0.00068756103515625	45.1178908860883
-0.7470703125	-0.0006854248046875	45.1422908860267
-0.74462890625	-0.00068328857421875	45.1666908859651
-0.7421875	-0.00068084716796875	45.1910908859035
-0.73974609375	-0.0006787109375	45.2154908858419
-0.7373046875	-0.00067657470703125	45.2398908857803
-0.73486328125	-0.00067413330078125	45.2642908857187
-0.732421875	-0.0006719970703125	45.288690885657
-0.72998046875	-0.00066986083984375	45.3130908855954
-0.7275390625	-0.00066741943359375	45.3374908855338
-0.72509765625	-0.000665283203125	45.3618908854722
-0.72265625	-0.000662841796875	45.3862908854106
-0.72021484375	-0.00066070556640625	45.410690885349
-0.7177734375	-0.0006585693359375	45.4350908852874
-0.71533203125	-0.00065643310546875	45.4594908852258
-0.712890625	-0.00065399169921875	45.4838908851642
-0.71044921875	-0.00065185546875	45.5082908851026
-0.7080078125	-0.00064971923828125	45.532690885041
-0.70556640625	-0.00064727783203125	45.5570908849794
-0.703125	-0.0006451416015625	45.5814908849178
-0.70068359375	-0.00064300537109375	45.6058908848562
-0.6982421875	-0.00064056396484375	45.6302908847946
-0.69580078125	-0.000638427734375	45.654690884733
-0.693359375	-0.00063629150390625	45.6790908846714
-0.69091796875	-0.00063385009765625	45.7034908846098
-0.6884765625	-0.0006317138671875	45.7278908845482
-0.68603515625	-0.00062957763671875	45.7522908844866
-0.68359375	-0.00062713623046875	45.776690884425
-0.68115234375	-0.000625	45.8010908843634
-0.6787109375	-0.00062286376953125	45.8254908843018
-0.67626953125	-0.00062042236328125	45.8498908842402
-0.673828125	-0.0006182861328125	45.8742908841785
-0.67138671875	-0.00061614990234375	45.8986908841169
-0.6689453125	-0.00061370849609375	45.9230908840553
-0.66650390625	-0.000611572265625	45.9474908839937
-0.6640625	-0.00060943603515625	45.9718908839321
-0.66162109375	-0.00060699462890625	45.9962908838705
-0.6591796875	-0.0006048583984375	46.0206908838089
-0.65673828125	-0.0006024169921875	46.0450908837473
-0.654296875	-0.00060028076171875	46.0694908836857
-0.65185546875	-0.00059814453125	46.0938908836241
-0.6494140625	-0.00059600830078125	46.1182908835625
-0.64697265625	-0.00059356689453125	46.1426908835009
-0.64453125	-0.0005914306640625	46.1670908834393
-0.64208984375	-0.0005889892578125	46.1914908833777
-0.6396484375	-0.00058685302734375	46.2158908833161
-0.63720703125	-0.000584716796875	46.2402908832545
-0.634765625	-0.000582275390625	46.2646908831929
-0.63232421875	-0.00058013916015625	46.2890908831313
-0.6298828125	-0.0005780029296875	46.3134908830697
-0.62744140625	-0.0005755615234375	46.3378908830081
-0.625	-0.00057342529296875	46.3622908829465
-0.62255859375	-0.0005712890625	46.3866908828849
-0.6201171875	-0.00056884765625	46.4110908828233
-0.61767578125	-0.00056671142578125	46.4354908827617
-0.615234375	-0.0005645751953125	46.4598908827001
-0.61279296875	-0.0005621337890625	46.4842908826384
-0.6103515625	-0.00055999755859375	46.5086908825768
-0.60791015625	-0.000557861328125	46.5330908825152
-0.60546875	-0.000555419921875	46.5574908824536
-0.60302734375	-0.00055328369140625	46.581890882392
-0.6005859375	-0.0005511474609375	46.6062908823304
-0.59814453125	-0.0005487060546875	46.6306908822688
-0.595703125	-0.00054656982421875	46.6550908822072
-0.59326171875	-0.00054443359375	46.6794908821456
-0.5908203125	-0.00054229736328125	46.703890882084
-0.58837890625	-0.00053985595703125	46.7282908820224
-0.5859375	-0.0005377197265625	46.7526908819608
-0.58349609375	-0.0005352783203125	46.7770908818992
-0.5810546875	-0.00053314208984375	46.8014908818376
-0.57861328125	-0.000531005859375	46.825890881776
-0.576171875	-0.000528564453125	46.8502908817144
-0.57373046875	-0.00052642822265625	46.8746908816528
-0.5712890625	-0.0005242919921875	46.8990908815912
-0.56884765625	-0.0005218505859375	46.9234908815296
-0.56640625	-0.00051971435546875	46.947890881468
-0.56396484375	-0.000517578125	46.9722908814064
-0.5615234375	-0.00051513671875	46.9966908813448
-0.55908203125	-0.00051300048828125	47.0210908812832
-0.556640625	-0.0005108642578125	47.0454908812216
-0.55419921875	-0.0005084228515625	47.0698908811599
-0.5517578125	-0.00050628662109375	47.0942908810983
-0.54931640625	-0.000504150390625	47.1186908810367
-0.546875	-0.000501708984375	47.1430908809751
-0.54443359375	-0.000499359130859375	47.1674908809135
-0.5419921875	-0.00049713134765625	47.1918908808519
-0.53955078125	-0.000494903564453125	47.2162908807903
-0.537109375	-0.000492645263671875	47.2406908807287
-0.53466796875	-0.00049041748046875	47.2650908806671
-0.5322265625	-0.0004881591796875	47.2894908806055
-0.52978515625	-0.000485931396484375	47.3138908805439
-0.52734375	-0.000483673095703125	47.3382908804823
-0.52490234375	-0.0004814453125	47.3626908804207
-0.5224609375	-0.000479217529296875	47.3870908803591
-0.52001953125	-0.000476959228515625	47.4114908802975
-0.517578125	-0.0004747314453125	47.4358908802359
-0.51513671875	-0.000472503662109375	47.4602908801743
-0.5126953125	-0.000470245361328125	47.4846908801127
-0.51025390625	-0.000468017578125	47.5090908800511
-0.5078125	-0.000465789794921875	47.5334908799895
-0.50537109375	-0.00046356201171875	47.5578908799279
-0.5029296875	-0.0004613037109375	47.5822908798663
-0.50048828125	-0.000459075927734375	47.6066908798047
-0.498046875	-0.000456817626953125	47.6310908797431
-0.49560546875	-0.00045458984375	47.6554908796815
-0.4931640625	-0.00045233154296875	47.6798908796198
-0.49072265625	-0.000450103759765625	47.7042908795582
-0.48828125	-0.000447845458984375	47.7286908794966
-0.48583984375	-0.00044561767578125	47.753090879435
-0.4833984375	-0.000443389892578125	47.7774908793734
-0.48095703125	-0.000441131591796875	47.8018908793118
-0.478515625	-0.00043890380859375	47.8262908792502
-0.47607421875	-0.0004366455078125	47.8506908791886
-0.4736328125	-0.000434417724609375	47.875090879127
-0.47119140625	-0.00043218994140625	47.8994908790654
-0.46875	-0.000429962158203125	47.9238908790038
-0.46630859375	-0.000427703857421875	47.9482908789422
-0.4638671875	-0.00042547607421875	47.9726908788806
-0.46142578125	-0.0004232177734375	47.997090878819
-0.458984375	-0.000420989990234375	48.0214908787574
-0.45654296875	-0.00041876220703125	48.0458908786958
-0.4541015625	-0.00041650390625	48.0702908786342
-0.45166015625	-0.00041424560546875	48.0946908785726
-0.44921875	-0.00041204833984375	48.119090878511
-0.44677734375	-0.0004097900390625	48.1434908784494
-0.4443359375	-0.000407562255859375	48.1678908783878
-0.44189453125	-0.000405303955078125	48.1922908783262
-0.439453125	-0.000403076171875	48.2166908782646
-0.43701171875	-0.00040081787109375	48.241090878203
-0.4345703125	-0.000398590087890625	48.2654908781414
-0.43212890625	-0.0003963623046875	48.2898908780797
-0.4296875	-0.00039410400390625	48.3142908780181
-0.42724609375	-0.000391876220703125	48.3386908779565
-0.4248046875	-0.0003896484375	48.3630908778949
-0.42236328125	-0.00038739013671875	48.3874908778333
-0.419921875	-0.0003851318359375	48.4118908777717
-0.41748046875	-0.000382904052734375	48.4362908777101
-0.4150390625	-0.00038067626953125	48.4606908776485
-0.41259765625	-0.000378448486328125	48.4850908775869
-0.41015625	-0.000376190185546875	48.5094908775253
-0.40771484375	-0.00037396240234375	48.5338908774637
-0.4052734375	-0.000371734619140625	48.5582908774021
-0.40283203125	-0.000369476318359375	48.5826908773405
-0.400390625	-0.00036724853515625	48.6070908772789
-0.39794921875	-0.000365020751953125	48.6314908772173
-0.3955078125	-0.000362762451171875	48.6558908771557
-0.39306640625	-0.00036053466796875	48.6802908770941
-0.390625	-0.000358306884765625	48.7046908770325
-0.38818359375	-0.000356048583984375	48.7290908769709
-0.3857421875	-0.00035382080078125	48.7534908769093
-0.38330078125	-0.0003515625	48.7778908768477
-0.380859375	-0.000349334716796875	48.8022908767861
-0.37841796875	-0.00034710693359375	48.8266908767245
-0.3759765625	-0.0003448486328125	48.8510908766629
-0.37353515625	-0.00034259033203125	48.8754908766012
-0.37109375	-0.000340362548828125	48.8998908765396
-0.36865234375	-0.000338104248046875	48.924290876478
-0.3662109375	-0.00033587646484375	48.9486908764164
-0.36376953125	-0.000333648681640625	48.9730908763548
-0.361328125	-0.000331390380859375	48.9974908762932
-0.35888671875	-0.00032916259765625	49.0218908762316
-0.3564453125	-0.000326934814453125	49.04629087617
-0.35400390625	-0.000324676513671875	49.0706908761084
-0.3515625	-0.00032244873046875	49.0950908760468
-0.34912109375	-0.000320220947265625	49.1194908759852
-0.3466796875	-0.0003179931640625	49.1438908759236
-0.34423828125	-0.00031573486328125	49.168290875862
-0.341796875	-0.000313507080078125	49.1926908758004
-0.33935546875	-0.000311248779296875	49.2170908757388
-0.3369140625	-0.00030902099609375	49.2414908756772
-0.33447265625	-0.000306793212890625	49.2658908756156
-0.33203125	-0.000304534912109375	49.290290875554
-0.32958984375	-0.00030230712890625	49.3146908754924
-0.3271484375	-0.000300048828125	49.3390908754308
-0.32470703125	-0.000297821044921875	49.3634908753692
-0.322265625	-0.00029559326171875	49.3878908753076
-0.31982421875	-0.0002933349609375	49.412290875246
-0.3173828125	-0.000291107177734375	49.4366908751844
-0.31494140625	-0.00028887939453125	49.4610908751228
-0.3125	-0.000286590576171875	49.4854908750611
-0.31005859375	-0.00028436279296875	49.5098908749995
-0.3076171875	-0.0002821044921875	49.5342908749379
-0.30517578125	-0.000279876708984375	49.5586908748763
-0.302734375	-0.00027764892578125	49.5830908748147
-0.30029296875	-0.000275390625	49.6074908747531
-0.2978515625	-0.000273162841796875	49.6318908746915
-0.29541015625	-0.000270904541015625	49.6562908746299
-0.29296875	-0.0002686767578125	49.6806908745683
-0.29052734375	-0.00026641845703125	49.7050908745067
-0.2880859375	-0.000264190673828125	49.7294908744451
-0.28564453125	-0.000261962890625	49.7538908743835
-0.283203125	-0.00025970458984375	49.7782908743219
-0.28076171875	-0.000257476806640625	49.8026908742603
-0.2783203125	-0.0002552490234375	49.8270908741987
-0.27587890625	-0.00025299072265625	49.8514908741371
-0.2734375	-0.000250762939453125	49.8758908740755
-0.27099609375	-0.00024853515625	49.9002908740139
-0.2685546875	-0.000246307373046875	49.9246908739523
-0.26611328125	-0.000244049072265625	49.9490908738907
-0.263671875	-0.0002418212890625	49.9734908738291
-0.26123046875	-0.000239593505859375	49.9978908737675
-0.2587890625	-0.000237335205078125	50.0222908737059
-0.25634765625	-0.000235076904296875	50.0466908736443
-0.25390625	-0.00023284912109375	50.0710908735826
-0.25146484375	-0.000230621337890625	50.095490873521
-0.2490234375	-0.000228363037109375	50.1198908734594
-0.24658203125	-0.00022613525390625	50.1442908733978
-0.244140625	-0.000223907470703125	50.1686908733362
-0.24169921875	-0.000221649169921875	50.1930908732746
-0.2392578125	-0.00021942138671875	50.217490873213
-0.23681640625	-0.000217193603515625	50.2418908731514
-0.234375	-0.000214935302734375	50.2662908730898
-0.23193359375	-0.000212677001953125	50.2906908730282
-0.2294921875	-0.00021044921875	50.3150908729666
-0.22705078125	-0.000208221435546875	50.339490872905
-0.224609375	-0.000205963134765625	50.3638908728434
-0.22216796875	-0.0002037353515625	50.3882908727818
-0.2197265625	-0.000201507568359375	50.4126908727202
-0.21728515625	-0.000199249267578125	50.4370908726586
-0.21484375	-0.000197021484375	50.461490872597
-0.21240234375	-0.00019476318359375	50.4858908725354
-0.2099609375	-0.000192535400390625	50.5102908724738
-0.20751953125	-0.000190277099609375	50.5346908724122
-0.205078125	-0.00018804931640625	50.5590908723506
-0.20263671875	-0.000185821533203125	50.583490872289
-0.2001953125	-0.000183563232421875	50.6078908722274
-0.19775390625	-0.00018133544921875	50.6322908721658
-0.1953125	-0.000179107666015625	50.6566908721042
-0.19287109375	-0.0001768798828125	50.6810908720425
-0.1904296875	-0.00017462158203125	50.7054908719809
-0.18798828125	-0.000172393798828125	50.7298908719193
-0.185546875	-0.000170135498046875	50.7542908718577
-0.18310546875	-0.00016790771484375	50.7786908717961
-0.1806640625	-0.0001656494140625	50.8030908717345
-0.17822265625	-0.000163421630859375	50.8274908716729
-0.17578125	-0.00016119384765625	50.8518908716113
-0.17333984375	-0.000158935546875	50.8762908715497
-0.1708984375	-0.000156707763671875	50.9006908714881
-0.16845703125	-0.00015447998046875	50.9250908714265
-0.166015625	-0.0001522216796875	50.9494908713649
-0.16357421875	-0.000149993896484375	50.9738908713033
-0.1611328125	-0.000147735595703125	50.9982908712417
-0.15869140625	-0.0001455078125	51.0226908711801
-0.15625	-0.000143280029296875	51.0470908711185
-0.15380859375	-0.000141021728515625	51.0714908710569
-0.1513671875	-0.0001387939453125	51.0958908709953
-0.14892578125	-0.000136566162109375	51.1202908709337
-0.146484375	-0.000134307861328125	51.1446908708721
-0.14404296875	-0.000132080078125	51.1690908708105
-0.1416015625	-0.000129852294921875	51.1934908707489
-0.13916015625	-0.000127593994140625	51.2178908706873
-0.13671875	-0.0001253662109375	51.2422908706257
-0.13427734375	-0.000123138427734375	51.266690870564
-0.1318359375	-0.000120880126953125	51.2910908705024
-0.12939453125	-0.000118621826171875	51.3154908704408
-0.126953125	-0.000116424560546875	51.3398908703792
-0.12451171875	-0.000114166259765625	51.3642908703176
-0.1220703125	-0.0001119384765625	51.388690870256
-0.11962890625	-0.000109710693359375	51.4130908701944
-0.1171875	-0.000107452392578125	51.4374908701328
-0.11474609375	-0.000105224609375	51.4618908700712
-0.1123046875	-0.00010296630859375	51.4862908700096
-0.10986328125	-0.000100738525390625	51.510690869948
-0.107421875	-9.8480224609375E-05	51.5350908698864
-0.10498046875	-9.625244140625E-05	51.5594908698248
-0.1025390625	-9.4024658203125E-05	51.5838908697632
-0.10009765625	-9.1766357421875E-05	51.6082908697016
-0.09765625	-8.953857421875E-05	51.63269086964
-0.09521484375	-8.7249755859375E-05	51.6570908695784
-0.0927734375	-8.502197265625E-05	51.6814908695168
-0.09033203125	-8.2763671875E-05	51.7058908694552
-0.087890625	-8.0535888671875E-05	51.7302908693936
-0.08544921875	-7.8277587890625E-05	51.754690869332
-0.0830078125	-7.60498046875E-05	51.7790908692704
-0.08056640625	-7.3822021484375E-05	51.8034908692088
-0.078125	-7.1563720703125E-05	51.8278908691472
-0.07568359375	-6.93359375E-05	51.8522908690856
-0.0732421875	-6.7108154296875E-05	51.8766908690239
-0.07080078125	-6.4849853515625E-05	51.9010908689623
-0.068359375	-6.26220703125E-05	51.9254908689007
-0.06591796875	-6.0394287109375E-05	51.9498908688391
-0.0634765625	-5.8135986328125E-05	51.9742908687775
-0.06103515625	-5.5908203125E-05	51.9986908687159
-0.05859375	-5.3680419921875E-05	52.0230908686543
-0.05615234375	-5.1422119140625E-05	52.0474908685927
-0.0537109375	-4.9163818359375E-05	52.0718908685311
-0.05126953125	-4.6929931640625E-05	52.0962908684695
-0.048828125	-4.46868896484375E-05	52.1206908684079
-0.04638671875	-4.244384765625E-05	52.1450908683463
-0.0439453125	-4.0216064453125E-05	52.1694908682847
-0.04150390625	-3.79730224609375E-05	52.1938908682231
-0.0390625	-3.57513427734375E-05	52.2182908681615
-0.03662109375	-3.35052490234375E-05	52.2426908680999
-0.0341796875	-3.12774658203125E-05	52.2670908680383
-0.03173828125	-2.90313720703125E-05	52.2914908679767
-0.029296875	-2.67913818359375E-05	52.3158908679151
-0.02685546875	-2.45574951171875E-05	52.3402908678535
-0.0244140625	-2.23175048828125E-05	52.3646908677919
-0.02197265625	-2.008056640625E-05	52.3890908677303
-0.01953125	-1.7840576171875E-05	52.4134908676687
-0.01708984375	-1.5594482421875E-05	52.4378908676071
-0.0146484375	-1.33575439453125E-05	52.4622908675454
-0.01220703125	-1.11328125E-05	52.4866908674838
-0.009765625	-8.880615234375E-06	52.5110908674222
-0.00732421875	-6.65283203125E-06	52.5354908673606
-0.0048828125	-4.410400390625E-06	52.559890867299
-0.00244140625	-2.18048095703125E-06	52.5842908672374
0	6.92749023437495E-08	52.6086908671758
