Time (s)	WE(1).Potential (V)
2.26674399427702	0.50994873046875
3.26674399175226	0.51025390625
4.26674398922751	0.5108642578125
5.26674398670275	0.51116943359375
6.26674398417799	0.51177978515625
7.26674398165324	0.5120849609375
8.26674397912848	0.51239013671875
9.26674397660372	0.51300048828125
10.266743974079	0.5133056640625
11.2667439715542	0.51361083984375
12.2667439690294	0.513916015625
13.2667439665047	0.5145263671875
14.2667439639799	0.51483154296875
15.2667439614552	0.51513671875
16.2667439589304	0.51544189453125
17.2667439564057	0.5157470703125
18.2667439538809	0.516357421875
19.2667439513561	0.51666259765625
20.2667439488314	0.5169677734375
21.2667439463066	0.51727294921875
22.2667439437819	0.517578125
23.2667439412571	0.51788330078125
24.2667439387324	0.51849365234375
25.2667439362076	0.518798828125
26.2667439336828	0.51910400390625
27.2667439311581	0.5194091796875
28.2667439286333	0.51971435546875
29.2667439261086	0.52001953125
30.2667439235838	0.52032470703125
31.2667439210591	0.5206298828125
32.2667439185343	0.52093505859375
33.2667439160095	0.521240234375
34.2667439134848	0.52154541015625
35.26674391096	0.5218505859375
36.2667439084353	0.52215576171875
37.2667439059105	0.5224609375
38.2667439033858	0.52276611328125
39.266743900861	0.5230712890625
40.2667438983362	0.52337646484375
41.2667438958115	0.523681640625
42.2667438932867	0.52398681640625
43.266743890762	0.5242919921875
44.2667438882372	0.5242919921875
45.2667438857125	0.52459716796875
46.2667438831877	0.52490234375
47.2667438806629	0.52520751953125
48.2667438781382	0.5255126953125
49.2667438756134	0.52581787109375
50.2667438730887	0.526123046875
51.2667438705639	0.52642822265625
52.2667438680392	0.52642822265625
53.2667438655144	0.5267333984375
54.2667438629896	0.52703857421875
55.2667438604649	0.52734375
56.2667438579401	0.52764892578125
57.2667438554154	0.5279541015625
58.2667438528906	0.52825927734375
59.2667438503659	0.52825927734375
60.2667438478411	0.528564453125
61.2667438453163	0.52886962890625
62.2667438427916	0.5291748046875
63.2667438402668	0.52947998046875
64.2667438377421	0.52947998046875
65.2667438352173	0.52978515625
66.2667438326926	0.53009033203125
67.2667438301678	0.5303955078125
68.266743827643	0.5303955078125
69.2667438251183	0.53070068359375
70.2667438225935	0.531005859375
71.2667438200688	0.53131103515625
72.266743817544	0.53131103515625
73.2667438150193	0.5316162109375
74.2667438124945	0.53192138671875
75.2667438099697	0.53192138671875
76.266743807445	0.5322265625
77.2667438049202	0.53253173828125
78.2667438023955	0.5328369140625
79.2667437998707	0.5328369140625
80.266743797346	0.53314208984375
81.2667437948212	0.533447265625
82.2667437922964	0.53375244140625
83.2667437897717	0.53375244140625
84.2667437872469	0.5340576171875
85.2667437847222	0.53436279296875
86.2667437821974	0.53436279296875
87.2667437796727	0.53466796875
88.2667437771479	0.53497314453125
89.2667437746231	0.53497314453125
90.2667437720984	0.5352783203125
91.2667437695736	0.53558349609375
92.2667437670489	0.53558349609375
93.2667437645241	0.535888671875
94.2667437619994	0.535888671875
95.2667437594746	0.53619384765625
96.2667437569498	0.5364990234375
97.2667437544251	0.5364990234375
98.2667437519003	0.53680419921875
99.2667437493756	0.537109375
100.266743746851	0.537109375
101.266743744326	0.53741455078125
102.266743741801	0.53741455078125
103.266743739277	0.5377197265625
104.266743736752	0.53802490234375
105.266743734227	0.53802490234375
106.266743731702	0.538330078125
107.266743729178	0.538330078125
108.266743726653	0.53863525390625
109.266743724128	0.5389404296875
110.266743721603	0.5389404296875
111.266743719078	0.53924560546875
112.266743716554	0.53924560546875
113.266743714029	0.53955078125
114.266743711504	0.53985595703125
115.266743708979	0.53985595703125
116.266743706455	0.5401611328125
117.26674370393	0.5401611328125
118.266743701405	0.54046630859375
119.26674369888	0.54046630859375
120.266743696356	0.540771484375
121.266743693831	0.540771484375
122.266743691306	0.54107666015625
123.266743688781	0.5413818359375
124.266743686257	0.5413818359375
125.266743683732	0.54168701171875
126.266743681207	0.54168701171875
127.266743678682	0.5419921875
128.266743676158	0.5419921875
129.266743673633	0.54229736328125
130.266743671108	0.54229736328125
131.266743668583	0.5426025390625
132.266743666059	0.5426025390625
133.266743663534	0.54290771484375
134.266743661009	0.54290771484375
135.266743658484	0.543212890625
136.26674365596	0.543212890625
137.266743653435	0.54351806640625
138.26674365091	0.54351806640625
139.266743648385	0.5438232421875
140.266743645861	0.5438232421875
141.266743643336	0.54412841796875
142.266743640811	0.54412841796875
143.266743638286	0.54443359375
144.266743635761	0.54443359375
145.266743633237	0.54473876953125
146.266743630712	0.54473876953125
147.266743628187	0.5450439453125
148.266743625662	0.5450439453125
149.266743623138	0.54534912109375
150.266743620613	0.54534912109375
151.266743618088	0.545654296875
152.266743615563	0.545654296875
153.266743613039	0.54595947265625
154.266743610514	0.54595947265625
155.266743607989	0.5462646484375
156.266743605464	0.5462646484375
157.26674360294	0.54656982421875
158.266743600415	0.54656982421875
159.26674359789	0.546875
160.266743595365	0.546875
161.266743592841	0.54718017578125
162.266743590316	0.54718017578125
163.266743587791	0.5474853515625
164.266743585266	0.5474853515625
165.266743582742	0.5474853515625
166.266743580217	0.54779052734375
167.266743577692	0.54779052734375
168.266743575167	0.548095703125
169.266743572643	0.548095703125
170.266743570118	0.54840087890625
171.266743567593	0.54840087890625
172.266743565068	0.5487060546875
173.266743562544	0.5487060546875
174.266743560019	0.5487060546875
175.266743557494	0.54901123046875
176.266743554969	0.54901123046875
177.266743552444	0.54931640625
178.26674354992	0.54931640625
179.266743547395	0.54962158203125
180.26674354487	0.54962158203125
181.266743542345	0.54962158203125
