Time (s)	WE(1).Potential (V)
8123.52049149008	0.54443359375
8124.52049148756	0.5389404296875
8125.52049148503	0.53375244140625
8126.52049148251	0.5291748046875
8127.52049147998	0.52459716796875
8128.52049147746	0.52032470703125
8129.52049147493	0.51666259765625
8130.52049147241	0.51300048828125
8131.52049146988	0.5096435546875
8132.52049146736	0.50628662109375
8133.52049146483	0.5035400390625
8134.52049146231	0.50079345703125
8135.52049145979	0.498077392578125
8136.52049145726	0.4957275390625
8137.52049145474	0.49359130859375
8138.52049145221	0.491607666015625
8139.52049144969	0.48980712890625
8140.52049144716	0.48809814453125
8141.52049144464	0.486572265625
8142.52049144211	0.485107421875
8143.52049143959	0.483795166015625
8144.52049143706	0.482574462890625
8145.52049143454	0.481475830078125
8146.52049143201	0.480438232421875
8147.52049142949	0.479461669921875
8148.52049142696	0.47857666015625
8149.52049142444	0.477752685546875
8150.52049142191	0.47698974609375
8151.52049141939	0.47637939453125
8152.52049141686	0.476348876953125
8153.52049141434	0.475982666015625
8154.52049141181	0.47540283203125
8155.52049140929	0.474822998046875
8156.52049140677	0.47430419921875
8157.52049140424	0.47381591796875
8158.52049140172	0.473388671875
8159.52049139919	0.472991943359375
8160.52049139667	0.472625732421875
8161.52049139414	0.4722900390625
8162.52049139162	0.471954345703125
8163.52049138909	0.4716796875
8164.52049138657	0.471466064453125
8165.52049138404	0.471282958984375
8166.52049138152	0.471099853515625
8167.52049137899	0.470947265625
8168.52049137647	0.47076416015625
8169.52049137394	0.470611572265625
8170.52049137142	0.470458984375
8171.52049136889	0.470306396484375
8172.52049136637	0.47021484375
8173.52049136384	0.4700927734375
8174.52049136132	0.469970703125
8175.52049135879	0.469879150390625
8176.52049135627	0.469818115234375
8177.52049135375	0.469757080078125
8178.52049135122	0.469696044921875
8179.5204913487	0.469635009765625
8180.52049134617	0.4696044921875
8181.52049134365	0.46954345703125
8182.52049134112	0.4693603515625
8183.5204913386	0.469482421875
8184.52049133607	0.469451904296875
8185.52049133355	0.46942138671875
8186.52049133102	0.469390869140625
8187.5204913285	0.4693603515625
8188.52049132597	0.4693603515625
8189.52049132345	0.469329833984375
8190.52049132092	0.4693603515625
8191.5204913184	0.4693603515625
8192.52049131587	0.469390869140625
8193.52049131335	0.469390869140625
8194.52049131082	0.469390869140625
8195.5204913083	0.469390869140625
8196.52049130578	0.46942138671875
8197.52049130325	0.46942138671875
8198.52049130073	0.46942138671875
8199.5204912982	0.469451904296875
8200.52049129568	0.469512939453125
8201.52049129315	0.469512939453125
8202.52049129063	0.46954345703125
8203.5204912881	0.469573974609375
8204.52049128558	0.4696044921875
8205.52049128305	0.469635009765625
8206.52049128053	0.46966552734375
8207.520491278	0.469696044921875
8208.52049127548	0.4697265625
8209.52049127295	0.469757080078125
8210.52049127043	0.46978759765625
8211.5204912679	0.4698486328125
8212.52049126538	0.4698486328125
8213.52049126285	0.46990966796875
8214.52049126033	0.46990966796875
8215.5204912578	0.469940185546875
8216.52049125528	0.469970703125
8217.52049125276	0.469970703125
8218.52049125023	0.469970703125
8219.52049124771	0.470001220703125
8220.52049124518	0.47003173828125
8221.52049124266	0.470062255859375
8222.52049124013	0.4700927734375
8223.52049123761	0.47015380859375
8224.52049123508	0.470184326171875
8225.52049123256	0.470245361328125
8226.52049123003	0.470245361328125
8227.52049122751	0.47027587890625
8228.52049122498	0.470306396484375
8229.52049122246	0.4703369140625
8230.52049121993	0.47039794921875
8231.52049121741	0.47039794921875
8232.52049121488	0.470458984375
8233.52049121236	0.47052001953125
8234.52049120983	0.470550537109375
8235.52049120731	0.4705810546875
8236.52049120478	0.470611572265625
8237.52049120226	0.47064208984375
8238.52049119974	0.470703125
8239.52049119721	0.470733642578125
8240.52049119469	0.470794677734375
8241.52049119216	0.470855712890625
8242.52049118964	0.47088623046875
8243.52049118711	0.470916748046875
8244.52049118459	0.47100830078125
8245.52049118206	0.471038818359375
8246.52049117954	0.471099853515625
8247.52049117701	0.47113037109375
8248.52049117449	0.471160888671875
8249.52049117196	0.47119140625
8250.52049116944	0.47125244140625
8251.52049116691	0.47125244140625
8252.52049116439	0.471282958984375
8253.52049116186	0.471343994140625
8254.52049115934	0.47137451171875
8255.52049115681	0.471405029296875
8256.52049115429	0.471466064453125
8257.52049115176	0.47149658203125
8258.52049114924	0.4715576171875
8259.52049114672	0.471588134765625
8260.52049114419	0.47161865234375
8261.52049114167	0.471649169921875
8262.52049113914	0.4716796875
8263.52049113662	0.47174072265625
8264.52049113409	0.471771240234375
8265.52049113157	0.4718017578125
8266.52049112904	0.47186279296875
8267.52049112652	0.471923828125
8268.52049112399	0.472015380859375
8269.52049112147	0.4720458984375
8270.52049111894	0.472076416015625
8271.52049111642	0.472137451171875
8272.52049111389	0.47216796875
8273.52049111137	0.47222900390625
8274.52049110884	0.472320556640625
8275.52049110632	0.47235107421875
8276.52049110379	0.472412109375
8277.52049110127	0.472442626953125
8278.52049109874	0.472503662109375
8279.52049109622	0.4725341796875
8280.5204910937	0.472564697265625
8281.52049109117	0.472625732421875
8282.52049108865	0.472686767578125
8283.52049108612	0.4727783203125
8284.5204910836	0.472808837890625
8285.52049108107	0.472869873046875
8286.52049107855	0.472900390625
8287.52049107602	0.472930908203125
8288.5204910735	0.47296142578125
8289.52049107097	0.4730224609375
8290.52049106845	0.473052978515625
8291.52049106592	0.473114013671875
8292.5204910634	0.47314453125
8293.52049106087	0.47320556640625
8294.52049105835	0.47320556640625
8295.52049105582	0.4732666015625
8296.5204910533	0.47332763671875
8297.52049105077	0.473358154296875
8298.52049104825	0.473388671875
8299.52049104573	0.47344970703125
8300.5204910432	0.473480224609375
8301.52049104068	0.473480224609375
8302.52049103815	0.473541259765625
