Time (s)	WE(1).Potential (V)
4434.93620880286	0.0242523193359375
4435.93620880034	0.0351776123046875
4436.93620879781	0.045501708984375
4437.93620879529	0.0552978515625
4438.93620879276	0.064605712890625
4439.93620879024	0.073455810546875
4440.93620878771	0.081878662109375
4441.93620878519	0.08990478515625
4442.93620878266	0.097564697265625
4443.93620878014	0.104888916015625
4444.93620877762	0.111846923828125
4445.93620877509	0.1185302734375
4446.93620877257	0.124908447265625
4447.93620877004	0.1309814453125
4448.93620876752	0.13677978515625
4449.93620876499	0.142364501953125
4450.93620876247	0.147674560546875
4451.93620875994	0.152801513671875
4452.93620875742	0.15771484375
4453.93620875489	0.16241455078125
4454.93620875237	0.166900634765625
4455.93620874984	0.1712646484375
4456.93620874732	0.1754150390625
4457.93620874479	0.179443359375
4458.93620874227	0.183319091796875
4459.93620873974	0.187042236328125
4460.93620873722	0.190673828125
4461.93620873469	0.194183349609375
4462.93620873217	0.19757080078125
4463.93620872964	0.200836181640625
4464.93620872712	0.20404052734375
4465.9362087246	0.207122802734375
4466.93620872207	0.21014404296875
4467.93620871955	0.213043212890625
4468.93620871702	0.215911865234375
4469.9362087145	0.21868896484375
4470.93620871197	0.221435546875
4471.93620870945	0.224090576171875
4472.93620870692	0.2266845703125
4473.9362087044	0.229217529296875
4474.93620870187	0.231781005859375
4475.93620869935	0.2342529296875
4476.93620869682	0.236663818359375
4477.9362086943	0.23907470703125
4478.93620869177	0.241424560546875
4479.93620868925	0.243743896484375
4480.93620868672	0.24603271484375
4481.9362086842	0.248321533203125
4482.93620868167	0.25054931640625
4483.93620867915	0.25274658203125
4484.93620867663	0.254974365234375
4485.9362086741	0.2572021484375
4486.93620867158	0.25946044921875
4487.93620866905	0.261688232421875
4488.93620866653	0.263946533203125
4489.936208664	0.2662353515625
4490.93620866148	0.268463134765625
4491.93620865895	0.270721435546875
4492.93620865643	0.272979736328125
4493.9362086539	0.27520751953125
4494.93620865138	0.277496337890625
4495.93620864885	0.279754638671875
4496.93620864633	0.28204345703125
4497.9362086438	0.2843017578125
4498.93620864128	0.28662109375
4499.93620863875	0.2889404296875
4500.93620863623	0.291259765625
4501.9362086337	0.29364013671875
4502.93620863118	0.2960205078125
4503.93620862865	0.2984619140625
4504.93620862613	0.300933837890625
4505.93620862361	0.303375244140625
4506.93620862108	0.305877685546875
4507.93620861856	0.308441162109375
4508.93620861603	0.311065673828125
4509.93620861351	0.313690185546875
4510.93620861098	0.31634521484375
4511.93620860846	0.319091796875
4512.93620860593	0.3218994140625
4513.93620860341	0.32470703125
4514.93620860088	0.32757568359375
4515.93620859836	0.330535888671875
4516.93620859583	0.33349609375
4517.93620859331	0.33660888671875
4518.93620859078	0.3397216796875
4519.93620858826	0.3428955078125
4520.93620858573	0.34613037109375
4521.93620858321	0.34942626953125
4522.93620858068	0.352783203125
4523.93620857816	0.356231689453125
4524.93620857563	0.35968017578125
4525.93620857311	0.363189697265625
4526.93620857059	0.36676025390625
4527.93620856806	0.370391845703125
4528.93620856554	0.3740234375
4529.93620856301	0.377716064453125
4530.93620856049	0.381439208984375
4531.93620855796	0.38519287109375
4532.93620855544	0.388946533203125
4533.93620855291	0.392791748046875
4534.93620855039	0.3966064453125
4535.93620854786	0.400421142578125
4536.93620854534	0.404266357421875
4537.93620854281	0.408172607421875
4538.93620854029	0.412078857421875
4539.93620853776	0.41595458984375
4540.93620853524	0.41986083984375
4541.93620853271	0.423797607421875
4542.93620853019	0.42779541015625
4543.93620852766	0.4317626953125
4544.93620852514	0.435821533203125
4545.93620852261	0.43988037109375
4546.93620852009	0.444000244140625
4547.93620851757	0.448089599609375
4548.93620851504	0.452239990234375
4549.93620851252	0.456390380859375
4550.93620850999	0.460601806640625
4551.93620850747	0.464813232421875
4552.93620850494	0.469024658203125
4553.93620850242	0.4732666015625
4554.93620849989	0.47747802734375
4555.93620849737	0.481689453125
4556.93620849484	0.485931396484375
4557.93620849232	0.4901123046875
4558.93620848979	0.494232177734375
4559.93620848727	0.498291015625
4560.93620848474	0.50262451171875
4561.93620848222	0.506591796875
4562.93620847969	0.51025390625
4563.93620847717	0.513916015625
4564.93620847464	0.51727294921875
4565.93620847212	0.5206298828125
4566.93620846959	0.523681640625
4567.93620846707	0.52642822265625
4568.93620846455	0.5291748046875
4569.93620846202	0.5316162109375
4570.9362084595	0.5340576171875
4571.93620845697	0.53619384765625
4572.93620845445	0.53802490234375
4573.93620845192	0.53985595703125
4574.9362084494	0.5413818359375
4575.93620844687	0.54290771484375
4576.93620844435	0.54412841796875
4577.93620844182	0.54534912109375
4578.9362084393	0.5462646484375
4579.93620843677	0.54718017578125
4580.93620843425	0.548095703125
4581.93620843172	0.54901123046875
4582.9362084292	0.54962158203125
4583.93620842667	0.55023193359375
4584.93620842415	0.55084228515625
4585.93620842162	0.55145263671875
4586.9362084191	0.55206298828125
4587.93620841658	0.5523681640625
4588.93620841405	0.552978515625
4589.93620841153	0.55328369140625
4590.936208409	0.5535888671875
4591.93620840648	0.55419921875
4592.93620840395	0.55450439453125
4593.93620840143	0.5548095703125
4594.9362083989	0.55511474609375
4595.93620839638	0.555419921875
4596.93620839385	0.55572509765625
4597.93620839133	0.55572509765625
4598.9362083888	0.5560302734375
4599.93620838628	0.55633544921875
4600.93620838375	0.556640625
4601.93620838123	0.55694580078125
4602.9362083787	0.5572509765625
4603.93620837618	0.5572509765625
4604.93620837365	0.55755615234375
4605.93620837113	0.557861328125
4606.9362083686	0.557861328125
4607.93620836608	0.55816650390625
4608.93620836356	0.55816650390625
4609.93620836103	0.5584716796875
4610.93620835851	0.55877685546875
4611.93620835598	0.55877685546875
4612.93620835346	0.55908203125
4613.93620835093	0.55908203125
