Time (s)	WE(1).Potential (V)
2.11122299466967	0.533447265625
3.11122299214492	0.533447265625
4.11122298962016	0.53375244140625
5.1112229870954	0.53375244140625
6.11122298457065	0.53375244140625
7.11122298204589	0.53375244140625
8.11122297952113	0.5340576171875
9.11122297699637	0.5340576171875
10.1112229744716	0.5340576171875
11.1112229719469	0.53436279296875
12.1112229694221	0.53436279296875
13.1112229668973	0.53436279296875
14.1112229643726	0.53436279296875
15.1112229618478	0.53466796875
16.1112229593231	0.53466796875
17.1112229567983	0.53466796875
18.1112229542736	0.53497314453125
19.1112229517488	0.53497314453125
20.111222949224	0.53497314453125
21.1112229466993	0.53497314453125
22.1112229441745	0.5352783203125
23.1112229416498	0.5352783203125
24.111222939125	0.5352783203125
25.1112229366003	0.5352783203125
26.1112229340755	0.53558349609375
27.1112229315507	0.53558349609375
28.111222929026	0.53558349609375
29.1112229265012	0.535888671875
30.1112229239765	0.535888671875
31.1112229214517	0.535888671875
32.111222918927	0.535888671875
33.1112229164022	0.53619384765625
34.1112229138774	0.53619384765625
35.1112229113527	0.53619384765625
36.1112229088279	0.53619384765625
37.1112229063032	0.5364990234375
38.1112229037784	0.5364990234375
39.1112229012537	0.5364990234375
40.1112228987289	0.53680419921875
41.1112228962041	0.53680419921875
42.1112228936794	0.53680419921875
43.1112228911546	0.53680419921875
44.1112228886299	0.537109375
45.1112228861051	0.537109375
46.1112228835804	0.537109375
47.1112228810556	0.537109375
48.1112228785308	0.53741455078125
49.1112228760061	0.53741455078125
50.1112228734813	0.53741455078125
51.1112228709566	0.53741455078125
52.1112228684318	0.5377197265625
53.1112228659071	0.5377197265625
54.1112228633823	0.5377197265625
55.1112228608575	0.53802490234375
56.1112228583328	0.53802490234375
57.111222855808	0.53802490234375
58.1112228532833	0.53802490234375
59.1112228507585	0.538330078125
60.1112228482338	0.538330078125
61.111222845709	0.538330078125
62.1112228431842	0.538330078125
63.1112228406595	0.53863525390625
64.1112228381347	0.53863525390625
65.11122283561	0.53863525390625
66.1112228330852	0.53863525390625
67.1112228305605	0.5389404296875
68.1112228280357	0.5389404296875
69.1112228255109	0.5389404296875
70.1112228229862	0.5389404296875
71.1112228204614	0.53924560546875
72.1112228179367	0.53924560546875
73.1112228154119	0.53924560546875
74.1112228128871	0.53924560546875
75.1112228103624	0.53955078125
76.1112228078376	0.53955078125
77.1112228053129	0.53955078125
78.1112228027881	0.53955078125
79.1112228002634	0.53985595703125
80.1112227977386	0.53985595703125
81.1112227952138	0.53985595703125
82.1112227926891	0.53985595703125
83.1112227901643	0.5401611328125
84.1112227876396	0.5401611328125
85.1112227851148	0.5401611328125
86.1112227825901	0.5401611328125
87.1112227800653	0.54046630859375
88.1112227775405	0.54046630859375
89.1112227750158	0.54046630859375
90.111222772491	0.54046630859375
91.1112227699663	0.540771484375
92.1112227674415	0.540771484375
93.1112227649168	0.540771484375
94.111222762392	0.540771484375
95.1112227598672	0.54107666015625
96.1112227573425	0.54107666015625
97.1112227548177	0.54107666015625
98.111222752293	0.54107666015625
99.1112227497682	0.5413818359375
100.111222747243	0.5413818359375
101.111222744719	0.5413818359375
102.111222742194	0.5413818359375
103.111222739669	0.54168701171875
104.111222737144	0.54168701171875
105.11122273462	0.54168701171875
106.111222732095	0.5419921875
107.11122272957	0.5419921875
108.111222727045	0.5419921875
109.111222724521	0.5419921875
110.111222721996	0.54229736328125
111.111222719471	0.54229736328125
112.111222716946	0.54229736328125
113.111222714422	0.54229736328125
114.111222711897	0.5426025390625
115.111222709372	0.5426025390625
116.111222706847	0.5426025390625
117.111222704323	0.5426025390625
118.111222701798	0.54290771484375
119.111222699273	0.54290771484375
120.111222696748	0.54290771484375
121.111222694224	0.54290771484375
122.111222691699	0.54290771484375
123.111222689174	0.543212890625
124.111222686649	0.543212890625
125.111222684125	0.543212890625
126.1112226816	0.54351806640625
127.111222679075	0.54351806640625
128.11122267655	0.54351806640625
129.111222674025	0.54351806640625
130.111222671501	0.54351806640625
131.111222668976	0.5438232421875
132.111222666451	0.5438232421875
133.111222663926	0.5438232421875
134.111222661402	0.5438232421875
135.111222658877	0.5438232421875
136.111222656352	0.54412841796875
137.111222653827	0.54412841796875
138.111222651303	0.54412841796875
139.111222648778	0.54412841796875
140.111222646253	0.54443359375
141.111222643728	0.54443359375
142.111222641204	0.54443359375
143.111222638679	0.54443359375
144.111222636154	0.54443359375
145.111222633629	0.54473876953125
146.111222631105	0.54473876953125
147.11122262858	0.54473876953125
148.111222626055	0.54473876953125
149.11122262353	0.5450439453125
150.111222621006	0.5450439453125
151.111222618481	0.5450439453125
152.111222615956	0.5450439453125
153.111222613431	0.5450439453125
154.111222610907	0.54534912109375
155.111222608382	0.54534912109375
156.111222605857	0.54534912109375
157.111222603332	0.54534912109375
158.111222600808	0.545654296875
159.111222598283	0.545654296875
160.111222595758	0.545654296875
161.111222593233	0.545654296875
162.111222590709	0.545654296875
163.111222588184	0.54595947265625
164.111222585659	0.54595947265625
165.111222583134	0.54595947265625
166.111222580609	0.54595947265625
167.111222578085	0.5462646484375
168.11122257556	0.5462646484375
169.111222573035	0.5462646484375
170.11122257051	0.5462646484375
171.111222567986	0.5462646484375
172.111222565461	0.54656982421875
173.111222562936	0.54656982421875
174.111222560411	0.54656982421875
175.111222557887	0.54656982421875
176.111222555362	0.54656982421875
177.111222552837	0.546875
178.111222550312	0.546875
179.111222547788	0.546875
180.111222545263	0.546875
181.111222542738	0.546875
