Time (s)	WE(1).Potential (V)
1.9987669949536	-0.000912475585937503
2.99876699242884	-0.000823974609375
3.99876698990408	-0.000741577148437506
4.99876698737933	-0.000646972656249994
5.99876698485457	-0.0005645751953125
6.99876698232981	-0.0004730224609375
7.99876697980505	-0.000390625000000006
8.9987669772803	-0.000292968749999997
9.99876697475554	-0.000216674804687497
10.9987669722308	-0.0001220703125
11.998766969706	-4.27246093750028E-05
12.9987669671813	4.88281249999972E-05
13.9987669646565	0.000140380859374997
14.9987669621318	0.000231933593749997
15.998766959607	0.000326538085937494
16.9987669570822	0.000418090820312494
17.9987669545575	0.000518798828125
18.9987669520327	0.000607299804687503
19.998766949508	0.000692749023437494
20.9987669469832	0.000787353515625006
21.9987669444585	0.000872802734374997
22.9987669419337	0.000964355468749997
23.9987669394089	0.00105895996093749
24.9987669368842	0.00113830566406251
25.9987669343594	0.001239013671875
26.9987669318347	0.0013397216796875
27.9987669293099	0.001422119140625
28.9987669267852	0.0015106201171875
29.9987669242604	0.00161132812500001
30.9987669217356	0.001690673828125
31.9987669192109	0.001788330078125
32.9987669166861	0.001873779296875
33.9987669141614	0.0019805908203125
34.9987669116366	0.00206298828125
35.9987669091119	0.002154541015625
36.9987669065871	0.00223693847656251
37.9987669040623	0.00233154296875
38.9987669015376	0.00242004394531251
39.9987668990128	0.00250854492187499
40.9987668964881	0.00258483886718749
41.9987668939633	0.0026702880859375
42.9987668914385	0.0027618408203125
43.9987668889138	0.00284729003906251
44.998766886389	0.00293579101562499
45.9987668838643	0.00301513671875001
46.9987668813395	0.0030853271484375
47.9987668788148	0.003192138671875
48.99876687629	0.00327148437499999
49.9987668737652	0.0033721923828125
50.9987668712405	0.003466796875
51.9987668687157	0.00355224609375
52.998766866191	0.003643798828125
53.9987668636662	0.00373229980468751
54.9987668611415	0.00382385253906251
55.9987668586167	0.0039215087890625
56.9987668560919	0.0040008544921875
57.9987668535672	0.0041015625
58.9987668510424	0.0041839599609375
59.9987668485177	0.0042724609375
60.9987668459929	0.0043670654296875
