Time (s)	WE(1).Potential (V)
680.747685281277	0.57098388671875
681.747685278753	0.302032470703125
682.747685276228	0.19110107421875
683.747685273703	0.170318603515625
684.747685271178	0.159332275390625
685.747685268654	0.151519775390625
686.747685266129	0.14520263671875
687.747685263604	0.139862060546875
688.747685261079	0.13519287109375
689.747685258554	0.1309814453125
690.74768525603	0.12713623046875
691.747685253505	0.12359619140625
692.74768525098	0.120269775390625
693.747685248455	0.1171875
694.747685245931	0.1142578125
695.747685243406	0.11151123046875
696.747685240881	0.108856201171875
697.747685238356	0.106353759765625
698.747685235832	0.10394287109375
699.747685233307	0.101654052734375
700.747685230782	0.099456787109375
701.747685228257	0.0972900390625
702.747685225733	0.095245361328125
703.747685223208	0.09326171875
704.747685220683	0.091339111328125
705.747685218158	0.0894775390625
706.747685215634	0.087677001953125
707.747685213109	0.0859375
708.747685210584	0.084228515625
709.747685208059	0.08258056640625
710.747685205535	0.080963134765625
711.74768520301	0.07940673828125
712.747685200485	0.077880859375
713.74768519796	0.076385498046875
714.747685195436	0.074920654296875
715.747685192911	0.073486328125
716.747685190386	0.072113037109375
717.747685187861	0.07073974609375
718.747685185337	0.069427490234375
719.747685182812	0.068115234375
720.747685180287	0.06683349609375
721.747685177762	0.065582275390625
722.747685175238	0.064361572265625
723.747685172713	0.06317138671875
724.747685170188	0.06195068359375
725.747685167663	0.060791015625
726.747685165138	0.059661865234375
727.747685162614	0.05853271484375
728.747685160089	0.05743408203125
729.747685157564	0.056365966796875
730.747685155039	0.0552978515625
731.747685152515	0.05426025390625
732.74768514999	0.053253173828125
733.747685147465	0.05224609375
734.74768514494	0.051239013671875
735.747685142416	0.05029296875
736.747685139891	0.049346923828125
737.747685137366	0.0483673095703125
738.747685134841	0.0474456787109375
739.747685132317	0.046539306640625
740.747685129792	0.04566650390625
741.747685127267	0.044775390625
742.747685124742	0.043914794921875
743.747685122218	0.04306640625
744.747685119693	0.042236328125
745.747685117168	0.0414215087890625
746.747685114643	0.04061279296875
747.747685112119	0.0398223876953125
748.747685109594	0.039044189453125
749.747685107069	0.038287353515625
750.747685104544	0.0375213623046875
751.74768510202	0.0367950439453125
752.747685099495	0.036041259765625
753.74768509697	0.0353118896484375
754.747685094445	0.0345947265625
755.747685091921	0.03389892578125
756.747685089396	0.0332061767578125
757.747685086871	0.032525634765625
758.747685084346	0.031854248046875
759.747685081821	0.0312103271484375
760.747685079297	0.0305389404296875
761.747685076772	0.029901123046875
762.747685074247	0.0292694091796875
763.747685071722	0.02864990234375
764.747685069198	0.02803955078125
765.747685066673	0.0274383544921875
766.747685064148	0.0268463134765625
767.747685061623	0.0262603759765625
768.747685059099	0.02569580078125
769.747685056574	0.025115966796875
770.747685054049	0.0245574951171875
771.747685051524	0.0240081787109375
772.747685049	0.023492431640625
773.747685046475	0.022930908203125
774.74768504395	0.022406005859375
775.747685041425	0.02188720703125
776.747685038901	0.0213775634765625
777.747685036376	0.0208740234375
778.747685033851	0.0203765869140625
779.747685031326	0.019891357421875
780.747685028802	0.0194091796875
781.747685026277	0.0189361572265625
782.747685023752	0.0184722900390625
783.747685021227	0.018023681640625
784.747685018703	0.0175567626953125
785.747685016178	0.0171142578125
786.747685013653	0.016668701171875
787.747685011128	0.0162384033203125
788.747685008604	0.015814208984375
789.747685006079	0.0153961181640625
790.747685003554	0.014984130859375
791.747685001029	0.0145721435546875
792.747684998504	0.014166259765625
793.74768499598	0.0137725830078125
794.747684993455	0.0133758544921875
795.74768499093	0.0129913330078125
796.747684988405	0.0126129150390625
797.747684985881	0.012237548828125
798.747684983356	0.011871337890625
799.747684980831	0.0115081787109375
