Time (s)	WE(1).Potential (V)
4435.10420780244	0.0362335205078125
4436.10420779991	0.051727294921875
4437.10420779739	0.065887451171875
4438.10420779486	0.078857421875
4439.10420779234	0.090911865234375
4440.10420778981	0.10211181640625
4441.10420778729	0.11260986328125
4442.10420778477	0.122406005859375
4443.10420778224	0.131561279296875
4444.10420777972	0.14013671875
4445.10420777719	0.14813232421875
4446.10420777467	0.15570068359375
4447.10420777214	0.162750244140625
4448.10420776962	0.169342041015625
4449.10420776709	0.1756591796875
4450.10420776457	0.181488037109375
4451.10420776204	0.18701171875
4452.10420775952	0.192291259765625
4453.10420775699	0.197265625
4454.10420775447	0.201995849609375
4455.10420775194	0.206512451171875
4456.10420774942	0.21087646484375
4457.10420774689	0.214996337890625
4458.10420774437	0.218902587890625
4459.10420774184	0.222747802734375
4460.10420773932	0.2264404296875
4461.10420773679	0.229888916015625
4462.10420773427	0.233306884765625
4463.10420773175	0.23663330078125
4464.10420772922	0.239715576171875
4465.1042077267	0.242828369140625
4466.10420772417	0.245880126953125
4467.10420772165	0.248809814453125
4468.10420771912	0.251708984375
4469.1042077166	0.254608154296875
4470.10420771407	0.257415771484375
4471.10420771155	0.260162353515625
4472.10420770902	0.262847900390625
4473.1042077065	0.265533447265625
4474.10420770397	0.268218994140625
4475.10420770145	0.2708740234375
4476.10420769892	0.273529052734375
4477.1042076964	0.276153564453125
4478.10420769387	0.27874755859375
4479.10420769135	0.281341552734375
4480.10420768882	0.283905029296875
4481.1042076863	0.2864990234375
4482.10420768377	0.2890625
4483.10420768125	0.291748046875
4484.10420767873	0.294403076171875
4485.1042076762	0.297027587890625
4486.10420767368	0.2998046875
4487.10420767115	0.302490234375
4488.10420766863	0.305267333984375
4489.1042076661	0.30804443359375
4490.10420766358	0.310943603515625
4491.10420766105	0.3138427734375
4492.10420765853	0.3167724609375
4493.104207656	0.319732666015625
4494.10420765348	0.32281494140625
4495.10420765095	0.32598876953125
4496.10420764843	0.329193115234375
4497.1042076459	0.33245849609375
4498.10420764338	0.3358154296875
4499.10420764085	0.3392333984375
4500.10420763833	0.342803955078125
4501.1042076358	0.34637451171875
4502.10420763328	0.350006103515625
4503.10420763075	0.35369873046875
4504.10420762823	0.357574462890625
4505.10420762571	0.361480712890625
4506.10420762318	0.36553955078125
4507.10420762066	0.36956787109375
4508.10420761813	0.3736572265625
4509.10420761561	0.377838134765625
4510.10420761308	0.382049560546875
4511.10420761056	0.3863525390625
4512.10420760803	0.39068603515625
4513.10420760551	0.39501953125
4514.10420760298	0.39935302734375
4515.10420760046	0.403717041015625
4516.10420759793	0.408233642578125
4517.10420759541	0.412689208984375
4518.10420759288	0.417144775390625
4519.10420759036	0.42169189453125
4520.10420758783	0.426300048828125
4521.10420758531	0.430999755859375
4522.10420758278	0.4356689453125
4523.10420758026	0.44049072265625
4524.10420757773	0.445343017578125
4525.10420757521	0.45025634765625
4526.10420757269	0.455291748046875
4527.10420757016	0.46038818359375
4528.10420756764	0.465545654296875
4529.10420756511	0.470794677734375
4530.10420756259	0.47625732421875
4531.10420756006	0.481719970703125
4532.10420755754	0.487274169921875
4533.10420755501	0.492889404296875
4534.10420755249	0.49847412109375
4535.10420754996	0.50445556640625
4536.10420754744	0.50994873046875
4537.10420754491	0.51544189453125
4538.10420754239	0.52093505859375
4539.10420753986	0.52581787109375
4540.10420753734	0.53070068359375
4541.10420753481	0.5352783203125
4542.10420753229	0.53924560546875
4543.10420752976	0.54290771484375
4544.10420752724	0.54595947265625
4545.10420752472	0.5487060546875
4546.10420752219	0.55084228515625
4547.10420751967	0.55267333984375
4548.10420751714	0.55419921875
4549.10420751462	0.55572509765625
4550.10420751209	0.556640625
4551.10420750957	0.55755615234375
4552.10420750704	0.5584716796875
4553.10420750452	0.55908203125
4554.10420750199	0.55938720703125
4555.10420749947	0.5596923828125
4556.10420749694	0.55999755859375
4557.10420749442	0.560302734375
4558.10420749189	0.56060791015625
4559.10420748937	0.5609130859375
4560.10420748684	0.5609130859375
4561.10420748432	0.56121826171875
4562.10420748179	0.56121826171875
4563.10420747927	0.56121826171875
4564.10420747674	0.5615234375
4565.10420747422	0.5615234375
4566.1042074717	0.5615234375
4567.10420746917	0.56182861328125
4568.10420746665	0.56182861328125
4569.10420746412	0.56182861328125
4570.1042074616	0.56182861328125
4571.10420745907	0.56182861328125
4572.10420745655	0.56182861328125
4573.10420745402	0.56182861328125
4574.1042074515	0.56182861328125
4575.10420744897	0.5621337890625
4576.10420744645	0.5621337890625
4577.10420744392	0.5621337890625
4578.1042074414	0.5621337890625
4579.10420743887	0.5621337890625
4580.10420743635	0.5621337890625
4581.10420743382	0.5621337890625
4582.1042074313	0.5621337890625
4583.10420742877	0.5621337890625
4584.10420742625	0.5621337890625
4585.10420742372	0.5621337890625
4586.1042074212	0.5621337890625
4587.10420741868	0.5621337890625
4588.10420741615	0.5621337890625
4589.10420741363	0.5621337890625
4590.1042074111	0.5621337890625
4591.10420740858	0.5621337890625
4592.10420740605	0.5621337890625
4593.10420740353	0.5621337890625
4594.104207401	0.5621337890625
4595.10420739848	0.56182861328125
4596.10420739595	0.56182861328125
4597.10420739343	0.56182861328125
4598.1042073909	0.56182861328125
4599.10420738838	0.56182861328125
4600.10420738585	0.56182861328125
4601.10420738333	0.56182861328125
4602.1042073808	0.56182861328125
4603.10420737828	0.56182861328125
4604.10420737575	0.56182861328125
4605.10420737323	0.56182861328125
4606.1042073707	0.56182861328125
4607.10420736818	0.56182861328125
4608.10420736566	0.56182861328125
4609.10420736313	0.56182861328125
4610.10420736061	0.56182861328125
4611.10420735808	0.56182861328125
4612.10420735556	0.56182861328125
4613.10420735303	0.56182861328125
4614.10420735051	0.56182861328125
