Time (s)	WE(1).Potential (V)
2.15622199455606	0.5804443359375
3.15622199203131	0.5804443359375
4.15622198950655	0.5804443359375
5.15622198698179	0.5804443359375
6.15622198445703	0.58074951171875
7.15622198193228	0.58074951171875
8.15622197940752	0.58074951171875
9.15622197688276	0.58074951171875
10.156221974358	0.58074951171875
11.1562219718332	0.5810546875
12.1562219693085	0.5810546875
13.1562219667837	0.5810546875
14.156221964259	0.5810546875
15.1562219617342	0.5810546875
16.1562219592095	0.58135986328125
17.1562219566847	0.58135986328125
18.1562219541599	0.58135986328125
19.1562219516352	0.58135986328125
20.1562219491104	0.58135986328125
21.1562219465857	0.5816650390625
22.1562219440609	0.5816650390625
23.1562219415362	0.5816650390625
24.1562219390114	0.5816650390625
25.1562219364866	0.58197021484375
26.1562219339619	0.58197021484375
27.1562219314371	0.58197021484375
28.1562219289124	0.58197021484375
29.1562219263876	0.58197021484375
30.1562219238629	0.582275390625
31.1562219213381	0.582275390625
32.1562219188133	0.582275390625
33.1562219162886	0.58258056640625
34.1562219137638	0.58258056640625
35.1562219112391	0.58258056640625
36.1562219087143	0.58258056640625
37.1562219061896	0.5828857421875
38.1562219036648	0.5828857421875
39.15622190114	0.5828857421875
40.1562218986153	0.5828857421875
41.1562218960905	0.5828857421875
42.1562218935658	0.5828857421875
43.156221891041	0.58319091796875
44.1562218885163	0.58319091796875
45.1562218859915	0.58319091796875
46.1562218834667	0.58349609375
47.156221880942	0.58349609375
48.1562218784172	0.58349609375
49.1562218758925	0.58349609375
50.1562218733677	0.58349609375
51.156221870843	0.58380126953125
52.1562218683182	0.58380126953125
53.1562218657934	0.58380126953125
54.1562218632687	0.58380126953125
55.1562218607439	0.5841064453125
56.1562218582192	0.5841064453125
57.1562218556944	0.5841064453125
58.1562218531697	0.5841064453125
59.1562218506449	0.5841064453125
60.1562218481201	0.58441162109375
61.1562218455954	0.58441162109375
62.1562218430706	0.58441162109375
63.1562218405459	0.584716796875
64.1562218380211	0.584716796875
65.1562218354964	0.584716796875
66.1562218329716	0.584716796875
67.1562218304468	0.584716796875
68.1562218279221	0.58502197265625
69.1562218253973	0.58502197265625
70.1562218228726	0.58502197265625
71.1562218203478	0.58502197265625
72.1562218178231	0.5853271484375
73.1562218152983	0.5853271484375
74.1562218127735	0.5853271484375
75.1562218102488	0.5853271484375
76.156221807724	0.58563232421875
77.1562218051993	0.58563232421875
78.1562218026745	0.58563232421875
79.1562218001498	0.58563232421875
80.156221797625	0.5859375
81.1562217951002	0.5859375
82.1562217925755	0.5859375
83.1562217900507	0.5859375
84.156221787526	0.5859375
85.1562217850012	0.58624267578125
86.1562217824765	0.58624267578125
87.1562217799517	0.58624267578125
88.1562217774269	0.58624267578125
89.1562217749022	0.5865478515625
90.1562217723774	0.5865478515625
91.1562217698527	0.5865478515625
92.1562217673279	0.5865478515625
93.1562217648031	0.5865478515625
94.1562217622784	0.5865478515625
95.1562217597536	0.58685302734375
96.1562217572289	0.58685302734375
97.1562217547041	0.58685302734375
98.1562217521794	0.587158203125
99.1562217496546	0.587158203125
100.15622174713	0.587158203125
101.156221744605	0.587158203125
102.15622174208	0.58746337890625
103.156221739556	0.58746337890625
104.156221737031	0.58746337890625
105.156221734506	0.58746337890625
106.156221731981	0.5877685546875
107.156221729457	0.5877685546875
108.156221726932	0.5877685546875
109.156221724407	0.5877685546875
110.156221721882	0.5877685546875
111.156221719358	0.58807373046875
112.156221716833	0.58807373046875
113.156221714308	0.58807373046875
114.156221711783	0.58807373046875
115.156221709258	0.58837890625
116.156221706734	0.58837890625
117.156221704209	0.58837890625
118.156221701684	0.58837890625
119.156221699159	0.58868408203125
120.156221696635	0.58868408203125
121.15622169411	0.58868408203125
122.156221691585	0.58868408203125
123.15622168906	0.5889892578125
124.156221686536	0.5889892578125
125.156221684011	0.5889892578125
126.156221681486	0.5889892578125
127.156221678961	0.5889892578125
128.156221676437	0.58929443359375
129.156221673912	0.58929443359375
130.156221671387	0.58929443359375
131.156221668862	0.58929443359375
132.156221666338	0.589599609375
133.156221663813	0.589599609375
134.156221661288	0.589599609375
135.156221658763	0.589599609375
136.156221656239	0.58990478515625
137.156221653714	0.58990478515625
138.156221651189	0.58990478515625
139.156221648664	0.58990478515625
140.15622164614	0.5902099609375
141.156221643615	0.5902099609375
142.15622164109	0.5902099609375
143.156221638565	0.5902099609375
144.156221636041	0.5902099609375
145.156221633516	0.5902099609375
146.156221630991	0.59051513671875
147.156221628466	0.59051513671875
148.156221625941	0.59051513671875
149.156221623417	0.59051513671875
150.156221620892	0.5908203125
151.156221618367	0.5908203125
152.156221615842	0.5908203125
153.156221613318	0.5908203125
154.156221610793	0.5908203125
155.156221608268	0.59112548828125
156.156221605743	0.59112548828125
157.156221603219	0.59112548828125
158.156221600694	0.59112548828125
159.156221598169	0.5914306640625
160.156221595644	0.5914306640625
161.15622159312	0.5914306640625
162.156221590595	0.5914306640625
163.15622158807	0.5914306640625
164.156221585545	0.59173583984375
165.156221583021	0.59173583984375
166.156221580496	0.59173583984375
167.156221577971	0.59173583984375
168.156221575446	0.592041015625
169.156221572922	0.592041015625
170.156221570397	0.592041015625
171.156221567872	0.592041015625
172.156221565347	0.592041015625
173.156221562823	0.592041015625
174.156221560298	0.59234619140625
175.156221557773	0.59234619140625
176.156221555248	0.59234619140625
177.156221552724	0.59234619140625
178.156221550199	0.59234619140625
179.156221547674	0.5926513671875
180.156221545149	0.5926513671875
181.156221542625	0.5926513671875
