Time (s)	WE(1).Potential (V)
3.4967709911715	0.5218505859375
4.49677098864674	0.5218505859375
5.49677098612199	0.5218505859375
6.49677098359723	0.52215576171875
7.49677098107247	0.52215576171875
8.49677097854772	0.52215576171875
9.49677097602296	0.52215576171875
10.4967709734982	0.52215576171875
11.4967709709734	0.52215576171875
12.4967709684487	0.5224609375
13.4967709659239	0.5224609375
14.4967709633992	0.5224609375
15.4967709608744	0.5224609375
16.4967709583497	0.5224609375
17.4967709558249	0.5224609375
18.4967709533001	0.52276611328125
19.4967709507754	0.52276611328125
20.4967709482506	0.52276611328125
21.4967709457259	0.52276611328125
22.4967709432011	0.52276611328125
23.4967709406764	0.52276611328125
24.4967709381516	0.52276611328125
25.4967709356268	0.5230712890625
26.4967709331021	0.5230712890625
27.4967709305773	0.5230712890625
28.4967709280526	0.5230712890625
29.4967709255278	0.5230712890625
30.4967709230031	0.5230712890625
31.4967709204783	0.52337646484375
32.4967709179535	0.52337646484375
33.4967709154288	0.52337646484375
34.496770912904	0.52337646484375
35.4967709103793	0.52337646484375
36.4967709078545	0.52337646484375
37.4967709053298	0.523681640625
38.496770902805	0.523681640625
39.4967709002802	0.523681640625
40.4967708977555	0.523681640625
41.4967708952307	0.523681640625
42.496770892706	0.523681640625
43.4967708901812	0.523681640625
44.4967708876565	0.52398681640625
45.4967708851317	0.52398681640625
46.4967708826069	0.52398681640625
47.4967708800822	0.52398681640625
48.4967708775574	0.52398681640625
49.4967708750327	0.52398681640625
50.4967708725079	0.5242919921875
51.4967708699832	0.5242919921875
52.4967708674584	0.5242919921875
53.4967708649336	0.5242919921875
54.4967708624089	0.5242919921875
55.4967708598841	0.5242919921875
56.4967708573594	0.5242919921875
57.4967708548346	0.52459716796875
58.4967708523099	0.52459716796875
59.4967708497851	0.52459716796875
60.4967708472603	0.52459716796875
61.4967708447356	0.52459716796875
62.4967708422108	0.52459716796875
63.4967708396861	0.52490234375
64.4967708371613	0.52490234375
65.4967708346365	0.52490234375
66.4967708321118	0.52490234375
67.496770829587	0.52490234375
68.4967708270623	0.52490234375
69.4967708245375	0.52490234375
70.4967708220128	0.52520751953125
71.496770819488	0.52520751953125
72.4967708169632	0.52520751953125
73.4967708144385	0.52520751953125
74.4967708119137	0.52520751953125
75.496770809389	0.52520751953125
76.4967708068642	0.52520751953125
77.4967708043395	0.5255126953125
78.4967708018147	0.5255126953125
79.4967707992899	0.5255126953125
80.4967707967652	0.5255126953125
81.4967707942404	0.5255126953125
82.4967707917157	0.5255126953125
83.4967707891909	0.5255126953125
84.4967707866662	0.52581787109375
85.4967707841414	0.52581787109375
86.4967707816166	0.52581787109375
87.4967707790919	0.52581787109375
88.4967707765671	0.52581787109375
89.4967707740424	0.52581787109375
90.4967707715176	0.526123046875
91.4967707689929	0.526123046875
92.4967707664681	0.526123046875
93.4967707639433	0.526123046875
94.4967707614186	0.526123046875
95.4967707588938	0.526123046875
96.4967707563691	0.526123046875
97.4967707538443	0.52642822265625
98.4967707513196	0.52642822265625
99.4967707487948	0.52642822265625
100.49677074627	0.52642822265625
101.496770743745	0.52642822265625
102.496770741221	0.52642822265625
103.496770738696	0.52642822265625
104.496770736171	0.52642822265625
105.496770733646	0.52642822265625
106.496770731122	0.52642822265625
107.496770728597	0.52642822265625
108.496770726072	0.52642822265625
109.496770723547	0.52642822265625
110.496770721022	0.52642822265625
111.496770718498	0.52642822265625
112.496770715973	0.52642822265625
113.496770713448	0.52642822265625
114.496770710923	0.52642822265625
115.496770708399	0.52642822265625
116.496770705874	0.52642822265625
117.496770703349	0.52642822265625
118.496770700824	0.52642822265625
119.4967706983	0.52642822265625
120.496770695775	0.52642822265625
121.49677069325	0.5267333984375
122.496770690725	0.5267333984375
123.496770688201	0.5267333984375
124.496770685676	0.5267333984375
125.496770683151	0.5267333984375
126.496770680626	0.5267333984375
127.496770678102	0.5267333984375
128.496770675577	0.52703857421875
129.496770673052	0.52703857421875
130.496770670527	0.52703857421875
131.496770668003	0.52703857421875
132.496770665478	0.52703857421875
133.496770662953	0.52703857421875
134.496770660428	0.52703857421875
135.496770657904	0.52703857421875
136.496770655379	0.52734375
137.496770652854	0.52734375
138.496770650329	0.52734375
139.496770647805	0.52734375
140.49677064528	0.52734375
141.496770642755	0.52734375
142.49677064023	0.52734375
143.496770637705	0.52734375
144.496770635181	0.52764892578125
145.496770632656	0.52764892578125
146.496770630131	0.52764892578125
147.496770627606	0.52764892578125
148.496770625082	0.52764892578125
149.496770622557	0.52764892578125
150.496770620032	0.52764892578125
151.496770617507	0.52764892578125
152.496770614983	0.5279541015625
153.496770612458	0.5279541015625
154.496770609933	0.5279541015625
155.496770607408	0.5279541015625
156.496770604884	0.5279541015625
157.496770602359	0.5279541015625
158.496770599834	0.5279541015625
159.496770597309	0.52825927734375
160.496770594785	0.52825927734375
161.49677059226	0.52825927734375
162.496770589735	0.52825927734375
163.49677058721	0.52825927734375
164.496770584686	0.52825927734375
165.496770582161	0.528564453125
166.496770579636	0.528564453125
167.496770577111	0.528564453125
168.496770574587	0.528564453125
169.496770572062	0.528564453125
170.496770569537	0.528564453125
171.496770567012	0.528564453125
172.496770564488	0.52886962890625
173.496770561963	0.52886962890625
174.496770559438	0.52886962890625
175.496770556913	0.52886962890625
176.496770554388	0.52886962890625
177.496770551864	0.52886962890625
178.496770549339	0.52886962890625
179.496770546814	0.5291748046875
180.496770544289	0.5291748046875
181.496770541765	0.5291748046875
182.49677053924	0.5291748046875
