Time (s)	WE(1).Potential (V)
5476.03247117435	0.5206298828125
5477.03247117182	0.51361083984375
5478.0324711693	0.5072021484375
5479.03247116677	0.50201416015625
5480.03247116425	0.497039794921875
5481.03247116172	0.493072509765625
5482.0324711592	0.48968505859375
5483.03247115667	0.48681640625
5484.03247115415	0.484375
5485.03247115162	0.482330322265625
5486.0324711491	0.4805908203125
5487.03247114657	0.479156494140625
5488.03247114405	0.47796630859375
5489.03247114153	0.476959228515625
5490.032471139	0.476165771484375
5491.03247113648	0.475555419921875
5492.03247113395	0.47503662109375
5493.03247113143	0.474639892578125
5494.0324711289	0.474334716796875
5495.03247112638	0.47412109375
5496.03247112385	0.473968505859375
5497.03247112133	0.473846435546875
5498.0324711188	0.47381591796875
5499.03247111628	0.47381591796875
5500.03247111375	0.473876953125
5501.03247111123	0.473968505859375
5502.0324711087	0.474029541015625
5503.03247110618	0.47412109375
5504.03247110365	0.474273681640625
5505.03247110113	0.47442626953125
5506.0324710986	0.474578857421875
5507.03247109608	0.474761962890625
5508.03247109355	0.474945068359375
5509.03247109103	0.475128173828125
5510.03247108851	0.47528076171875
5511.03247108598	0.475494384765625
5512.03247108346	0.47564697265625
5513.03247108093	0.475799560546875
5514.03247107841	0.4759521484375
5515.03247107588	0.476043701171875
5516.03247107336	0.476165771484375
5517.03247107083	0.476287841796875
5518.03247106831	0.4764404296875
5519.03247106578	0.4765625
5520.03247106326	0.476715087890625
5521.03247106073	0.476898193359375
5522.03247105821	0.47705078125
5523.03247105568	0.477203369140625
5524.03247105316	0.477325439453125
5525.03247105063	0.477447509765625
5526.03247104811	0.47760009765625
5527.03247104558	0.477752685546875
5528.03247104306	0.477935791015625
5529.03247104053	0.47808837890625
5530.03247103801	0.478179931640625
5531.03247103549	0.478302001953125
5532.03247103296	0.47845458984375
5533.03247103044	0.47857666015625
5534.03247102791	0.47869873046875
5535.03247102539	0.478790283203125
5536.03247102286	0.478912353515625
5537.03247102034	0.478973388671875
5538.03247101781	0.47906494140625
5539.03247101529	0.479156494140625
5540.03247101276	0.479217529296875
5541.03247101024	0.479278564453125
5542.03247100771	0.479400634765625
5543.03247100519	0.4794921875
5544.03247100266	0.479705810546875
5545.03247100014	0.480621337890625
5546.03247099761	0.481964111328125
5547.03247099509	0.483123779296875
5548.03247099256	0.484283447265625
5549.03247099004	0.4853515625
5550.03247098751	0.486114501953125
5551.03247098499	0.486175537109375
5552.03247098247	0.485809326171875
5553.03247097994	0.485443115234375
5554.03247097742	0.485107421875
5555.03247097489	0.48480224609375
5556.03247097237	0.484527587890625
5557.03247096984	0.48431396484375
5558.03247096732	0.48406982421875
5559.03247096479	0.483856201171875
5560.03247096227	0.483734130859375
5561.03247095974	0.48358154296875
5562.03247095722	0.4833984375
5563.03247095469	0.483245849609375
5564.03247095217	0.48309326171875
5565.03247094964	0.48297119140625
5566.03247094712	0.482879638671875
5567.03247094459	0.4827880859375
5568.03247094207	0.482696533203125
5569.03247093954	0.482666015625
5570.03247093702	0.482635498046875
5571.03247093449	0.482666015625
5572.03247093197	0.482635498046875
5573.03247092945	0.48260498046875
5574.03247092692	0.482574462890625
5575.0324709244	0.482574462890625
5576.03247092187	0.4825439453125
5577.03247091935	0.482513427734375
5578.03247091682	0.482513427734375
5579.0324709143	0.482513427734375
5580.03247091177	0.48248291015625
5581.03247090925	0.482513427734375
5582.03247090672	0.482513427734375
5583.0324709042	0.4825439453125
5584.03247090167	0.4825439453125
5585.03247089915	0.4825439453125
5586.03247089662	0.4825439453125
5587.0324708941	0.4825439453125
5588.03247089157	0.482574462890625
5589.03247088905	0.482574462890625
5590.03247088652	0.482574462890625
5591.032470884	0.482574462890625
5592.03247088148	0.4825439453125
5593.03247087895	0.482574462890625
5594.03247087643	0.482635498046875
5595.0324708739	0.482666015625
5596.03247087138	0.482696533203125
5597.03247086885	0.48272705078125
5598.03247086633	0.482757568359375
5599.0324708638	0.4827880859375
5600.03247086128	0.482818603515625
5601.03247085875	0.482879638671875
5602.03247085623	0.48291015625
5603.0324708537	0.48297119140625
5604.03247085118	0.4830322265625
5605.03247084865	0.483062744140625
5606.03247084613	0.48309326171875
5607.0324708436	0.483123779296875
5608.03247084108	0.483123779296875
5609.03247083855	0.483123779296875
5610.03247083603	0.483154296875
5611.0324708335	0.483184814453125
5612.03247083098	0.48321533203125
5613.03247082846	0.48321533203125
5614.03247082593	0.483245849609375
5615.03247082341	0.483306884765625
5616.03247082088	0.48333740234375
5617.03247081836	0.483367919921875
5618.03247081583	0.483367919921875
5619.03247081331	0.48333740234375
5620.03247081078	0.48333740234375
5621.03247080826	0.48333740234375
5622.03247080573	0.483367919921875
5623.03247080321	0.4833984375
5624.03247080068	0.4833984375
5625.03247079816	0.4833984375
5626.03247079563	0.4833984375
5627.03247079311	0.483367919921875
5628.03247079058	0.483367919921875
5629.03247078806	0.4833984375
5630.03247078553	0.4833984375
5631.03247078301	0.48345947265625
5632.03247078048	0.4835205078125
5633.03247077796	0.483551025390625
5634.03247077544	0.483551025390625
5635.03247077291	0.483551025390625
5636.03247077039	0.48358154296875
5637.03247076786	0.48358154296875
5638.03247076534	0.483612060546875
5639.03247076281	0.483642578125
5640.03247076029	0.483673095703125
5641.03247075776	0.48370361328125
5642.03247075524	0.4837646484375
5643.03247075271	0.48382568359375
5644.03247075019	0.483856201171875
5645.03247074766	0.48394775390625
5646.03247074514	0.483978271484375
5647.03247074261	0.4840087890625
5648.03247074009	0.484039306640625
5649.03247073756	0.484039306640625
5650.03247073504	0.48406982421875
5651.03247073251	0.484100341796875
5652.03247072999	0.484100341796875
5653.03247072746	0.484130859375
5654.03247072494	0.484130859375
5655.03247072242	0.484130859375
