Time (s)	WE(1).Potential (V)
3.48677299119674	0.478363037109375
4.48677298867199	0.478515625
5.48677298614723	0.47869873046875
6.48677298362247	0.4788818359375
7.48677298109772	0.47906494140625
8.48677297857296	0.479248046875
9.4867729760482	0.47943115234375
10.4867729735234	0.479583740234375
11.4867729709987	0.479766845703125
12.4867729684739	0.479949951171875
13.4867729659492	0.4801025390625
14.4867729634244	0.48028564453125
15.4867729608997	0.48046875
16.4867729583749	0.480621337890625
17.4867729558501	0.480804443359375
18.4867729533254	0.48095703125
19.4867729508006	0.48114013671875
20.4867729482759	0.4813232421875
21.4867729457511	0.481475830078125
22.4867729432264	0.481658935546875
23.4867729407016	0.4818115234375
24.4867729381768	0.481964111328125
25.4867729356521	0.482147216796875
26.4867729331273	0.4822998046875
27.4867729306026	0.482452392578125
28.4867729280778	0.482635498046875
29.4867729255531	0.4827880859375
30.4867729230283	0.482940673828125
31.4867729205035	0.483123779296875
32.4867729179788	0.4832763671875
33.486772915454	0.483428955078125
34.4867729129293	0.48358154296875
35.4867729104045	0.483734130859375
36.4867729078798	0.483917236328125
37.486772905355	0.48406982421875
38.4867729028302	0.484222412109375
39.4867729003055	0.484405517578125
40.4867728977807	0.48455810546875
41.486772895256	0.4847412109375
42.4867728927312	0.484893798828125
43.4867728902065	0.48504638671875
44.4867728876817	0.485198974609375
45.4867728851569	0.4853515625
46.4867728826322	0.48553466796875
47.4867728801074	0.485687255859375
48.4867728775827	0.48583984375
49.4867728750579	0.48602294921875
50.4867728725332	0.486175537109375
51.4867728700084	0.486297607421875
52.4867728674836	0.4864501953125
53.4867728649589	0.486602783203125
54.4867728624341	0.48675537109375
55.4867728599094	0.48687744140625
56.4867728573846	0.487030029296875
57.4867728548599	0.4871826171875
58.4867728523351	0.487335205078125
59.4867728498103	0.487457275390625
60.4867728472856	0.48760986328125
61.4867728447608	0.487762451171875
62.4867728422361	0.487884521484375
63.4867728397113	0.488037109375
64.4867728371865	0.488189697265625
65.4867728346618	0.48834228515625
66.486772832137	0.48846435546875
67.4867728296123	0.488616943359375
68.4867728270875	0.488739013671875
69.4867728245628	0.4888916015625
70.486772822038	0.489013671875
71.4867728195132	0.489166259765625
72.4867728169885	0.48931884765625
73.4867728144637	0.48944091796875
74.486772811939	0.489593505859375
75.4867728094142	0.489715576171875
76.4867728068895	0.489837646484375
77.4867728043647	0.489990234375
78.4867728018399	0.4901123046875
79.4867727993152	0.490264892578125
80.4867727967904	0.490386962890625
81.4867727942657	0.49053955078125
82.4867727917409	0.49066162109375
83.4867727892162	0.49078369140625
84.4867727866914	0.490936279296875
85.4867727841666	0.491058349609375
86.4867727816419	0.491180419921875
87.4867727791171	0.4913330078125
88.4867727765924	0.491455078125
89.4867727740676	0.4915771484375
90.4867727715429	0.49169921875
91.4867727690181	0.491851806640625
92.4867727664933	0.491973876953125
93.4867727639686	0.492095947265625
94.4867727614438	0.492218017578125
95.4867727589191	0.49237060546875
96.4867727563943	0.49249267578125
97.4867727538696	0.49261474609375
98.4867727513448	0.49273681640625
99.48677274882	0.49285888671875
100.486772746295	0.493011474609375
101.486772743771	0.493133544921875
102.486772741246	0.493255615234375
103.486772738721	0.493377685546875
104.486772736196	0.493499755859375
105.486772733672	0.493621826171875
106.486772731147	0.493743896484375
107.486772728622	0.493865966796875
108.486772726097	0.493988037109375
109.486772723572	0.494110107421875
110.486772721048	0.494232177734375
111.486772718523	0.494354248046875
112.486772715998	0.494476318359375
113.486772713473	0.494598388671875
114.486772710949	0.494720458984375
115.486772708424	0.494842529296875
116.486772705899	0.494964599609375
117.486772703374	0.49505615234375
118.48677270085	0.49517822265625
119.486772698325	0.495269775390625
120.4867726958	0.495391845703125
121.486772693275	0.4954833984375
122.486772690751	0.495574951171875
123.486772688226	0.495697021484375
124.486772685701	0.495819091796875
125.486772683176	0.49591064453125
126.486772680652	0.49603271484375
127.486772678127	0.496124267578125
128.486772675602	0.496246337890625
129.486772673077	0.496337890625
130.486772670553	0.4964599609375
131.486772668028	0.49658203125
132.486772665503	0.496673583984375
133.486772662978	0.496795654296875
134.486772660454	0.49688720703125
135.486772657929	0.49700927734375
136.486772655404	0.497100830078125
137.486772652879	0.497222900390625
138.486772650355	0.497314453125
139.48677264783	0.497406005859375
140.486772645305	0.497528076171875
141.48677264278	0.497650146484375
142.486772640255	0.49774169921875
143.486772637731	0.49786376953125
144.486772635206	0.49798583984375
145.486772632681	0.49810791015625
146.486772630156	0.498199462890625
147.486772627632	0.498321533203125
148.486772625107	0.4984130859375
149.486772622582	0.498504638671875
150.486772620057	0.498626708984375
151.486772617533	0.49871826171875
152.486772615008	0.498809814453125
153.486772612483	0.498931884765625
154.486772609958	0.4990234375
155.486772607434	0.499114990234375
156.486772604909	0.499267578125
157.486772602384	0.499267578125
158.486772599859	0.49957275390625
159.486772597335	0.49957275390625
160.48677259481	0.49957275390625
161.486772592285	0.4998779296875
162.48677258976	0.4998779296875
163.486772587236	0.4998779296875
164.486772584711	0.50018310546875
165.486772582186	0.50018310546875
166.486772579661	0.50018310546875
167.486772577137	0.50048828125
168.486772574612	0.50048828125
169.486772572087	0.50048828125
170.486772569562	0.50079345703125
171.486772567038	0.50079345703125
172.486772564513	0.50079345703125
173.486772561988	0.5010986328125
174.486772559463	0.5010986328125
175.486772556938	0.5010986328125
176.486772554414	0.50140380859375
177.486772551889	0.50140380859375
178.486772549364	0.50140380859375
179.486772546839	0.501708984375
180.486772544315	0.501708984375
181.48677254179	0.501708984375
182.486772539265	0.50201416015625
