Time (s)	WE(1).Potential (V)
3728.66912558602	0.02783203125
3729.66912558349	0.04383544921875
3730.66912558097	0.058441162109375
3731.66912557844	0.071868896484375
3732.66912557592	0.084320068359375
3733.66912557339	0.095855712890625
3734.66912557087	0.1065673828125
3735.66912556834	0.1165771484375
3736.66912556582	0.125946044921875
3737.66912556329	0.1346435546875
3738.66912556077	0.142852783203125
3739.66912555824	0.150482177734375
3740.66912555572	0.157684326171875
3741.66912555319	0.16448974609375
3742.66912555067	0.1707763671875
3743.66912554814	0.176788330078125
3744.66912554562	0.18243408203125
3745.66912554309	0.187774658203125
3746.66912554057	0.192901611328125
3747.66912553805	0.19769287109375
3748.66912553552	0.2022705078125
3749.669125533	0.20660400390625
3750.66912553047	0.210723876953125
3751.66912552795	0.214630126953125
3752.66912552542	0.2183837890625
3753.6691255229	0.22198486328125
3754.66912552037	0.225494384765625
3755.66912551785	0.22882080078125
3756.66912551532	0.232025146484375
3757.6691255128	0.235198974609375
3758.66912551027	0.23809814453125
3759.66912550775	0.240997314453125
3760.66912550522	0.243865966796875
3761.6691255027	0.246673583984375
3762.66912550017	0.249359130859375
3763.66912549765	0.251983642578125
3764.66912549512	0.25445556640625
3765.6691254926	0.256988525390625
3766.66912549007	0.25946044921875
3767.66912548755	0.261871337890625
3768.66912548503	0.264190673828125
3769.6691254825	0.266571044921875
3770.66912547998	0.268798828125
3771.66912547745	0.27105712890625
3772.66912547493	0.27325439453125
3773.6691254724	0.27545166015625
3774.66912546988	0.277618408203125
3775.66912546735	0.279815673828125
3776.66912546483	0.281890869140625
3777.6691254623	0.2840576171875
3778.66912545978	0.28619384765625
3779.66912545725	0.28826904296875
3780.66912545473	0.29034423828125
3781.6691254522	0.292449951171875
3782.66912544968	0.29449462890625
3783.66912544715	0.296539306640625
3784.66912544463	0.298614501953125
3785.6691254421	0.30072021484375
3786.66912543958	0.302764892578125
3787.66912543705	0.30487060546875
3788.66912543453	0.30706787109375
3789.66912543201	0.309173583984375
3790.66912542948	0.311309814453125
3791.66912542696	0.313507080078125
3792.66912542443	0.315704345703125
3793.66912542191	0.317901611328125
3794.66912541938	0.32012939453125
3795.66912541686	0.3223876953125
3796.66912541433	0.324676513671875
3797.66912541181	0.327056884765625
3798.66912540928	0.329498291015625
3799.66912540676	0.331939697265625
3800.66912540423	0.33441162109375
3801.66912540171	0.3369140625
3802.66912539918	0.33953857421875
3803.66912539666	0.34210205078125
3804.66912539413	0.344818115234375
3805.66912539161	0.34765625
3806.66912538908	0.350494384765625
3807.66912538656	0.353302001953125
3808.66912538403	0.356201171875
3809.66912538151	0.35919189453125
3810.66912537899	0.362213134765625
3811.66912537646	0.365325927734375
3812.66912537394	0.368438720703125
3813.66912537141	0.371551513671875
3814.66912536889	0.374786376953125
3815.66912536636	0.3780517578125
3816.66912536384	0.38128662109375
3817.66912536131	0.38458251953125
3818.66912535879	0.387908935546875
3819.66912535626	0.3912353515625
3820.66912535374	0.394622802734375
3821.66912535121	0.397979736328125
3822.66912534869	0.401336669921875
3823.66912534616	0.40472412109375
3824.66912534364	0.408050537109375
3825.66912534111	0.411407470703125
3826.66912533859	0.414794921875
3827.66912533606	0.41815185546875
3828.66912533354	0.42156982421875
3829.66912533102	0.424957275390625
3830.66912532849	0.4283447265625
3831.66912532597	0.431793212890625
3832.66912532344	0.435211181640625
3833.66912532092	0.4385986328125
3834.66912531839	0.4420166015625
3835.66912531587	0.44537353515625
3836.66912531334	0.44873046875
3837.66912531082	0.452117919921875
3838.66912530829	0.4554443359375
3839.66912530577	0.458740234375
3840.66912530324	0.462127685546875
3841.66912530072	0.4654541015625
3842.66912529819	0.468719482421875
3843.66912529567	0.471954345703125
3844.66912529314	0.475189208984375
3845.66912529062	0.478271484375
3846.66912528809	0.48138427734375
3847.66912528557	0.484405517578125
3848.66912528304	0.4873046875
3849.66912528052	0.49017333984375
3850.669125278	0.492919921875
3851.66912527547	0.49560546875
3852.66912527295	0.498138427734375
3853.66912527042	0.50079345703125
3854.6691252679	0.50323486328125
3855.66912526537	0.50537109375
3856.66912526285	0.50750732421875
3857.66912526032	0.5096435546875
3858.6691252578	0.511474609375
3859.66912525527	0.51300048828125
3860.66912525275	0.5145263671875
3861.66912525022	0.51605224609375
3862.6691252477	0.517578125
3863.66912524517	0.518798828125
3864.66912524265	0.52001953125
3865.66912524012	0.52093505859375
3866.6691252376	0.52215576171875
3867.66912523507	0.5230712890625
3868.66912523255	0.52398681640625
3869.66912523002	0.52459716796875
3870.6691252275	0.52520751953125
3871.66912522498	0.526123046875
3872.66912522245	0.52642822265625
3873.66912521993	0.52703857421875
3874.6691252174	0.52764892578125
3875.66912521488	0.52825927734375
3876.66912521235	0.528564453125
3877.66912520983	0.52886962890625
3878.6691252073	0.5291748046875
3879.66912520478	0.52978515625
3880.66912520225	0.52978515625
3881.66912519973	0.53009033203125
3882.6691251972	0.5303955078125
3883.66912519468	0.53070068359375
3884.66912519215	0.531005859375
3885.66912518963	0.531005859375
3886.6691251871	0.53131103515625
3887.66912518458	0.5316162109375
3888.66912518205	0.5316162109375
3889.66912517953	0.53192138671875
3890.669125177	0.53192138671875
3891.66912517448	0.5322265625
3892.66912517196	0.5322265625
3893.66912516943	0.53253173828125
3894.66912516691	0.53253173828125
3895.66912516438	0.53253173828125
3896.66912516186	0.5328369140625
3897.66912515933	0.5328369140625
3898.66912515681	0.53314208984375
3899.66912515428	0.53314208984375
3900.66912515176	0.533447265625
3901.66912514923	0.533447265625
3902.66912514671	0.533447265625
3903.66912514418	0.53375244140625
3904.66912514166	0.53375244140625
3905.66912513913	0.53375244140625
3906.66912513661	0.53375244140625
3907.66912513408	0.5340576171875
