[Measurement conditions],,,
Sample identification,ITO,,
Comment - 1,"Configuration=3-axis cradle, Owner=User-1, Creation date=10/21/2019 2:49:51 PM",,
Comment - 2,Goniometer=Theta/Theta; Minimum step size 2Theta:0.0001; Minimum step size Omega:0.0001,,
Comment - 3,Sample stage=Chi-Phi-z stage 240 mm (reflection); Minimum step size Phi:0.01; Minimum step size Chi:0.01; Minimum step size Z:0.001,,
Comment - 4,Diffractometer system=EMPYREAN,,
Comment - 5,"Measurement program=C:\Users\User\Desktop\Users\E.Rojas\20240206\gi20_80_1p0grad_0p08_10s_BBHD_div1d8_ASS1d32_4h10min02s.xrdmp, Identifier={61566FC5-F6C1-4FFF-9DD6-E5DCADD731D7}",,
Comment - 6,Fine Calibration Offset for 2Theta = 0.1774 deg,,
Comment - 7,Fine Calibration Offset for Omega = 0.0973 deg,,
Anode material,Cu,,
K-Alpha1 wavelength,1.540598,,
K-Alpha2 wavelength,1.544426,,
Ratio K-Alpha2/K-Alpha1,0.5,,
Divergence slit,Fixed,0.19mm,
Monochromator used,NO,,
Generator voltage,45,,
Tube current,40,,
File date and time,2/6/2024 11:19,,
Unit cell,,,
h k l, 0 0 0,,
Scan axis,2Theta,,
Scan range,20,80,
Scan step size,0.08,,
No. of points,750,,
Scan type,CONTINUOUS,,
Omega,1,,
Phi,0,,
Psi,0,,
Z,5.216,,
Time per step,20,,
[Scan points],,,
Angle, TimePerStep, Intensity, ESD
20.04,20,13,3.6056
20.12,20,11,3.3166
20.2,20,14,3.7417
20.28,20,12,3.4641
20.36,20,10,3.1623
20.44,20,19,4.3589
20.52,20,16,4
20.6,20,10,3.1623
20.68,20,15,3.873
20.76,20,16,4
20.84,20,8,2.8284
20.92,20,19,4.3589
21,20,17,4.1231
21.08,20,23,4.7958
21.16,20,21,4.5826
21.24,20,15,3.873
21.32,20,26,5.099
21.4,20,27,5.1962
21.48,20,33,5.7446
21.56,20,28,5.2915
21.64,20,19,4.3589
21.72,20,18,4.2426
21.8,20,10,3.1623
21.88,20,21,4.5826
21.96,20,16,4
22.04,20,17,4.1231
22.12,20,17,4.1231
22.2,20,12,3.4641
22.28,20,16,4
22.36,20,14,3.7417
22.44,20,17,4.1231
22.52,20,20,4.4721
22.6,20,17,4.1231
22.68,20,14,3.7417
22.76,20,28,5.2915
22.84,20,13,3.6056
22.92,20,18,4.2426
23,20,17,4.1231
23.08,20,12,3.4641
23.16,20,13,3.6056
23.24,20,15,3.873
23.32,20,7,2.6458
23.4,20,17,4.1231
23.48,20,13,3.6056
23.56,20,8,2.8284
23.64,20,12,3.4641
23.72,20,12,3.4641
23.8,20,10,3.1623
23.88,20,20,4.4721
23.96,20,9,3
24.04,20,15,3.873
24.12,20,14,3.7417
24.2,20,11,3.3166
24.28,20,19,4.3589
24.36,20,15,3.873
24.44,20,14,3.7417
24.52,20,17,4.1231
24.6,20,20,4.4721
24.68,20,8,2.8284
24.76,20,7,2.6458
24.84,20,17,4.1231
24.92,20,16,4
25,20,14,3.7417
25.08,20,16,4
25.16,20,14,3.7417
25.24,20,12,3.4641
25.32,20,12,3.4641
25.4,20,21,4.5826
25.48,20,20,4.4721
25.56,20,21,4.5826
25.64,20,17,4.1231
25.72,20,13,3.6056
25.8,20,9,3
25.88,20,17,4.1231
25.96,20,12,3.4641
26.04,20,14,3.7417
26.12,20,20,4.4721
26.2,20,15,3.873
26.28,20,17,4.1231
26.36,20,18,4.2426
26.44,20,17,4.1231
26.52,20,16,4
26.6,20,11,3.3166
26.68,20,13,3.6056
26.76,20,19,4.3589
26.84,20,28,5.2915
26.92,20,17,4.1231
27,20,11,3.3166
27.08,20,17,4.1231
27.16,20,19,4.3589
27.24,20,12,3.4641
27.32,20,16,4
27.4,20,18,4.2426
27.48,20,16,4
27.56,20,16,4
27.64,20,16,4
27.72,20,21,4.5826
27.8,20,17,4.1231
27.88,20,25,5
27.96,20,13,3.6056
28.04,20,20,4.4721
28.12,20,9,3
28.2,20,19,4.3589
28.28,20,9,3
28.36,20,23,4.7958
28.44,20,20,4.4721
28.52,20,19,4.3589
28.6,20,19,4.3589
28.68,20,20,4.4721
28.76,20,20,4.4721
28.84,20,22,4.6904
28.92,20,20,4.4721
29,20,18,4.2426
29.08,20,21,4.5826
29.16,20,22,4.6904
29.24,20,22,4.6904
29.32,20,15,3.873
29.4,20,18,4.2426
29.48,20,23,4.7958
29.56,20,17,4.1231
29.64,20,10,3.1623
29.72,20,14,3.7417
29.8,20,19,4.3589
29.88,20,20,4.4721
29.96,20,17,4.1231
30.04,20,22,4.6904
30.12,20,20,4.4721
30.2,20,42,6.4807
30.28,20,78,8.8318
30.36,20,112,10.583
30.44,20,115,10.7238
30.52,20,128,11.3137
30.6,20,90,9.4868
30.68,20,54,7.3485
30.76,20,47,6.8557
30.84,20,30,5.4772
30.92,20,24,4.899
31,20,17,4.1231
31.08,20,21,4.5826
31.16,20,10,3.1623
31.24,20,18,4.2426
31.32,20,19,4.3589
31.4,20,9,3
31.48,20,16,4
31.56,20,23,4.7958
31.64,20,18,4.2426
31.72,20,13,3.6056
31.8,20,11,3.3166
31.88,20,10,3.1623
31.96,20,12,3.4641
32.04,20,18,4.2426
32.12,20,10,3.1623
32.2,20,12,3.4641
32.28,20,15,3.873
32.36,20,18,4.2426
32.44,20,15,3.873
32.52,20,14,3.7417
32.6,20,10,3.1623
32.68,20,16,4
32.76,20,8,2.8284
32.84,20,12,3.4641
32.92,20,17,4.1231
33,20,16,4
33.08,20,17,4.1231
33.16,20,23,4.7958
33.24,20,12,3.4641
33.32,20,11,3.3166
33.4,20,14,3.7417
33.48,20,13,3.6056
33.56,20,19,4.3589
33.64,20,13,3.6056
33.72,20,16,4
33.8,20,19,4.3589
33.88,20,14,3.7417
33.96,20,15,3.873
34.04,20,20,4.4721
34.12,20,14,3.7417
34.2,20,17,4.1231
34.28,20,11,3.3166
34.36,20,17,4.1231
34.44,20,12,3.4641
34.52,20,8,2.8284
34.6,20,17,4.1231
34.68,20,6,2.4495
34.76,20,18,4.2426
34.84,20,21,4.5826
34.92,20,17,4.1231
35,20,16,4
35.08,20,17,4.1231
35.16,20,24,4.899
35.24,20,43,6.5574
35.32,20,45,6.7082
35.4,20,56,7.4833
35.48,20,38,6.1644
35.56,20,24,4.899
35.64,20,20,4.4721
35.72,20,14,3.7417
35.8,20,13,3.6056
35.88,20,13,3.6056
35.96,20,16,4
36.04,20,16,4
36.12,20,4,2
36.2,20,7,2.6458
36.28,20,13,3.6056
36.36,20,19,4.3589
36.44,20,7,2.6458
36.52,20,11,3.3166
36.6,20,13,3.6056
36.68,20,10,3.1623
36.76,20,10,3.1623
36.84,20,8,2.8284
36.92,20,8,2.8284
37,20,13,3.6056
37.08,20,15,3.873
37.16,20,9,3
37.24,20,7,2.6458
37.32,20,9,3
37.4,20,12,3.4641
37.48,20,15,3.873
37.56,20,16,4
37.64,20,20,4.4721
37.72,20,8,2.8284
37.8,20,12,3.4641
37.88,20,13,3.6056
37.96,20,13,3.6056
38.04,20,19,4.3589
38.12,20,10,3.1623
38.2,20,7,2.6458
38.28,20,10,3.1623
38.36,20,14,3.7417
38.44,20,10,3.1623
38.52,20,10,3.1623
38.6,20,11,3.3166
38.68,20,13,3.6056
38.76,20,9,3
38.84,20,7,2.6458
38.92,20,6,2.4495
39,20,14,3.7417
39.08,20,15,3.873
39.16,20,7,2.6458
39.24,20,13,3.6056
39.32,20,11,3.3166
39.4,20,12,3.4641
39.48,20,9,3
39.56,20,16,4
39.64,20,6,2.4495
39.72,20,11,3.3166
39.8,20,18,4.2426
39.88,20,6,2.4495
39.96,20,8,2.8284
40.04,20,11,3.3166
40.12,20,5,2.2361
40.2,20,13,3.6056
40.28,20,15,3.873
40.36,20,13,3.6056
40.44,20,11,3.3166
40.52,20,7,2.6458
40.6,20,13,3.6056
40.68,20,14,3.7417
40.76,20,13,3.6056
40.84,20,12,3.4641
40.92,20,11,3.3166
41,20,15,3.873
41.08,20,13,3.6056
41.16,20,11,3.3166
41.24,20,18,4.2426
41.32,20,14,3.7417
41.4,20,12,3.4641
41.48,20,13,3.6056
41.56,20,11,3.3166
41.64,20,12,3.4641
41.72,20,13,3.6056
41.8,20,9,3
41.88,20,16,4
41.96,20,11,3.3166
42.04,20,17,4.1231
42.12,20,19,4.3589
42.2,20,12,3.4641
42.28,20,8,2.8284
42.36,20,11,3.3166
42.44,20,16,4
42.52,20,9,3
42.6,20,11,3.3166
42.68,20,11,3.3166
42.76,20,13,3.6056
42.84,20,7,2.6458
42.92,20,11,3.3166
43,20,11,3.3166
43.08,20,11,3.3166
43.16,20,7,2.6458
43.24,20,13,3.6056
43.32,20,13,3.6056
43.4,20,15,3.873
43.48,20,7,2.6458
43.56,20,9,3
43.64,20,10,3.1623
43.72,20,9,3
43.8,20,13,3.6056
43.88,20,6,2.4495
43.96,20,7,2.6458
44.04,20,15,3.873
44.12,20,9,3
44.2,20,13,3.6056
44.28,20,11,3.3166
44.36,20,9,3
44.44,20,13,3.6056
44.52,20,13,3.6056
44.6,20,18,4.2426
44.68,20,10,3.1623
44.76,20,7,2.6458
44.84,20,9,3
44.92,20,6,2.4495
45,20,8,2.8284
45.08,20,14,3.7417
45.16,20,9,3
45.24,20,13,3.6056
45.32,20,18,4.2426
45.4,20,12,3.4641
45.48,20,28,5.2915
45.56,20,22,4.6904
45.64,20,19,4.3589
45.72,20,23,4.7958
45.8,20,13,3.6056
45.88,20,13,3.6056
45.96,20,13,3.6056
46.04,20,18,4.2426
46.12,20,14,3.7417
46.2,20,18,4.2426
46.28,20,8,2.8284
46.36,20,15,3.873
46.44,20,14,3.7417
46.52,20,19,4.3589
46.6,20,16,4
46.68,20,11,3.3166
46.76,20,7,2.6458
46.84,20,3,1.7321
46.92,20,13,3.6056
47,20,12,3.4641
47.08,20,13,3.6056
47.16,20,13,3.6056
47.24,20,11,3.3166
47.32,20,15,3.873
47.4,20,11,3.3166
47.48,20,20,4.4721
47.56,20,18,4.2426
47.64,20,10,3.1623
47.72,20,7,2.6458
47.8,20,21,4.5826
47.88,20,12,3.4641
47.96,20,14,3.7417
48.04,20,14,3.7417
48.12,20,8,2.8284
48.2,20,10,3.1623
48.28,20,10,3.1623
48.36,20,14,3.7417
48.44,20,10,3.1623
48.52,20,12,3.4641
48.6,20,15,3.873
48.68,20,19,4.3589
48.76,20,16,4
48.84,20,15,3.873
48.92,20,13,3.6056
49,20,11,3.3166
49.08,20,10,3.1623
49.16,20,13,3.6056
49.24,20,15,3.873
49.32,20,16,4
49.4,20,7,2.6458
49.48,20,8,2.8284
49.56,20,15,3.873
49.64,20,18,4.2426
49.72,20,7,2.6458
49.8,20,20,4.4721
49.88,20,17,4.1231
49.96,20,9,3
50.04,20,18,4.2426
50.12,20,17,4.1231
50.2,20,19,4.3589
50.28,20,15,3.873
50.36,20,16,4
50.44,20,14,3.7417
50.52,20,14,3.7417
50.6,20,35,5.9161
50.68,20,36,6
50.76,20,38,6.1644
50.84,20,50,7.0711
50.92,20,46,6.7823
51,20,28,5.2915
51.08,20,32,5.6569
51.16,20,27,5.1962
51.24,20,25,5
51.32,20,13,3.6056
51.4,20,11,3.3166
51.48,20,18,4.2426
51.56,20,20,4.4721
51.64,20,10,3.1623
51.72,20,20,4.4721
51.8,20,14,3.7417
51.88,20,10,3.1623
51.96,20,18,4.2426
52.04,20,15,3.873
52.12,20,11,3.3166
52.2,20,14,3.7417
52.28,20,14,3.7417
52.36,20,18,4.2426
52.44,20,14,3.7417
52.52,20,13,3.6056
52.6,20,16,4
52.68,20,14,3.7417
52.76,20,11,3.3166
52.84,20,11,3.3166
52.92,20,20,4.4721
53,20,14,3.7417
53.08,20,6,2.4495
53.16,20,12,3.4641
53.24,20,17,4.1231
53.32,20,6,2.4495
53.4,20,18,4.2426
53.48,20,15,3.873
53.56,20,17,4.1231
53.64,20,18,4.2426
53.72,20,14,3.7417
53.8,20,14,3.7417
53.88,20,11,3.3166
53.96,20,16,4
54.04,20,11,3.3166
54.12,20,16,4
54.2,20,14,3.7417
54.28,20,15,3.873
54.36,20,15,3.873
54.44,20,16,4
54.52,20,10,3.1623
54.6,20,14,3.7417
54.68,20,7,2.6458
54.76,20,11,3.3166
54.84,20,8,2.8284
54.92,20,19,4.3589
55,20,11,3.3166
55.08,20,18,4.2426
55.16,20,13,3.6056
55.24,20,16,4
55.32,20,10,3.1623
55.4,20,10,3.1623
55.48,20,15,3.873
55.56,20,15,3.873
55.64,20,19,4.3589
55.72,20,12,3.4641
55.8,20,23,4.7958
55.88,20,22,4.6904
55.96,20,21,4.5826
56.04,20,12,3.4641
56.12,20,18,4.2426
56.2,20,22,4.6904
56.28,20,15,3.873
56.36,20,18,4.2426
56.44,20,12,3.4641
56.52,20,13,3.6056
56.6,20,15,3.873
56.68,20,10,3.1623
56.76,20,16,4
56.84,20,13,3.6056
56.92,20,9,3
57,20,5,2.2361
57.08,20,13,3.6056
57.16,20,9,3
57.24,20,10,3.1623
57.32,20,15,3.873
57.4,20,11,3.3166
57.48,20,10,3.1623
57.56,20,15,3.873
57.64,20,18,4.2426
57.72,20,18,4.2426
57.8,20,17,4.1231
57.88,20,18,4.2426
57.96,20,14,3.7417
58.04,20,14,3.7417
58.12,20,14,3.7417
58.2,20,18,4.2426
58.28,20,17,4.1231
58.36,20,13,3.6056
58.44,20,17,4.1231
58.52,20,12,3.4641
58.6,20,15,3.873
58.68,20,14,3.7417
58.76,20,20,4.4721
58.84,20,12,3.4641
58.92,20,16,4
59,20,19,4.3589
59.08,20,12,3.4641
59.16,20,23,4.7958
59.24,20,20,4.4721
59.32,20,21,4.5826
59.4,20,12,3.4641
59.48,20,19,4.3589
59.56,20,11,3.3166
59.64,20,16,4
59.72,20,10,3.1623
59.8,20,14,3.7417
59.88,20,19,4.3589
59.96,20,15,3.873
60.04,20,13,3.6056
60.12,20,12,3.4641
60.2,20,25,5
60.28,20,33,5.7446
60.36,20,23,4.7958
60.44,20,27,5.1962
60.52,20,27,5.1962
60.6,20,26,5.099
60.68,20,34,5.831
60.76,20,23,4.7958
60.84,20,19,4.3589
60.92,20,21,4.5826
61,20,11,3.3166
61.08,20,14,3.7417
61.16,20,16,4
61.24,20,13,3.6056
61.32,20,17,4.1231
61.4,20,21,4.5826
61.48,20,9,3
61.56,20,14,3.7417
61.64,20,11,3.3166
61.72,20,14,3.7417
61.8,20,9,3
61.88,20,17,4.1231
61.96,20,17,4.1231
62.04,20,15,3.873
62.12,20,17,4.1231
62.2,20,14,3.7417
62.28,20,9,3
62.36,20,14,3.7417
62.44,20,17,4.1231
62.52,20,16,4
62.6,20,18,4.2426
62.68,20,14,3.7417
62.76,20,9,3
62.84,20,17,4.1231
62.92,20,8,2.8284
63,20,17,4.1231
63.08,20,13,3.6056
63.16,20,12,3.4641
63.24,20,18,4.2426
63.32,20,6,2.4495
63.4,20,21,4.5826
63.48,20,23,4.7958
63.56,20,22,4.6904
63.64,20,20,4.4721
63.72,20,17,4.1231
63.8,20,15,3.873
63.88,20,11,3.3166
63.96,20,9,3
64.04,20,14,3.7417
64.12,20,14,3.7417
64.2,20,14,3.7417
64.28,20,19,4.3589
64.36,20,15,3.873
64.44,20,16,4
64.52,20,12,3.4641
64.6,20,15,3.873
64.68,20,14,3.7417
64.76,20,17,4.1231
64.84,20,16,4
64.92,20,8,2.8284
65,20,19,4.3589
65.08,20,15,3.873
65.16,20,13,3.6056
65.24,20,13,3.6056
65.32,20,14,3.7417
65.4,20,8,2.8284
65.48,20,10,3.1623
65.56,20,12,3.4641
65.64,20,15,3.873
65.72,20,18,4.2426
65.8,20,17,4.1231
65.88,20,12,3.4641
65.96,20,11,3.3166
66.04,20,6,2.4495
66.12,20,12,3.4641
66.2,20,16,4
66.28,20,16,4
66.36,20,21,4.5826
66.44,20,20,4.4721
66.52,20,20,4.4721
66.6,20,13,3.6056
66.68,20,13,3.6056
66.76,20,9,3
66.84,20,11,3.3166
66.92,20,11,3.3166
67,20,9,3
67.08,20,8,2.8284
67.16,20,14,3.7417
67.24,20,20,4.4721
67.32,20,11,3.3166
67.4,20,6,2.4495
67.48,20,13,3.6056
67.56,20,15,3.873
67.64,20,10,3.1623
67.72,20,15,3.873
67.8,20,14,3.7417
67.88,20,16,4
67.96,20,18,4.2426
68.04,20,15,3.873
68.12,20,24,4.899
68.2,20,12,3.4641
68.28,20,14,3.7417
68.36,20,6,2.4495
68.44,20,10,3.1623
68.52,20,9,3
68.6,20,20,4.4721
68.68,20,11,3.3166
68.76,20,6,2.4495
68.84,20,15,3.873
68.92,20,7,2.6458
69,20,20,4.4721
69.08,20,14,3.7417
69.16,20,10,3.1623
69.24,20,16,4
69.32,20,11,3.3166
69.4,20,16,4
69.48,20,11,3.3166
69.56,20,21,4.5826
69.64,20,12,3.4641
69.72,20,15,3.873
69.8,20,14,3.7417
69.88,20,21,4.5826
69.96,20,18,4.2426
70.04,20,14,3.7417
70.12,20,14,3.7417
70.2,20,12,3.4641
70.28,20,13,3.6056
70.36,20,8,2.8284
70.44,20,14,3.7417
70.52,20,7,2.6458
70.6,20,11,3.3166
70.68,20,9,3
70.76,20,19,4.3589
70.84,20,16,4
70.92,20,13,3.6056
71,20,18,4.2426
71.08,20,11,3.3166
71.16,20,7,2.6458
71.24,20,17,4.1231
71.32,20,11,3.3166
71.4,20,14,3.7417
71.48,20,16,4
71.56,20,16,4
71.64,20,10,3.1623
71.72,20,14,3.7417
71.8,20,13,3.6056
71.88,20,18,4.2426
71.96,20,12,3.4641
72.04,20,9,3
72.12,20,14,3.7417
72.2,20,14,3.7417
72.28,20,14,3.7417
72.36,20,14,3.7417
72.44,20,14,3.7417
72.52,20,11,3.3166
72.6,20,15,3.873
72.68,20,16,4
72.76,20,8,2.8284
72.84,20,14,3.7417
72.92,20,11,3.3166
73,20,14,3.7417
73.08,20,10,3.1623
73.16,20,11,3.3166
73.24,20,10,3.1623
73.32,20,21,4.5826
73.4,20,10,3.1623
73.48,20,15,3.873
73.56,20,18,4.2426
73.64,20,9,3
73.72,20,11,3.3166
73.8,20,16,4
73.88,20,12,3.4641
73.96,20,18,4.2426
74.04,20,8,2.8284
74.12,20,9,3
74.2,20,14,3.7417
74.28,20,12,3.4641
74.36,20,17,4.1231
74.44,20,21,4.5826
74.52,20,18,4.2426
74.6,20,14,3.7417
74.68,20,14,3.7417
74.76,20,11,3.3166
74.84,20,22,4.6904
74.92,20,14,3.7417
75,20,10,3.1623
75.08,20,15,3.873
75.16,20,14,3.7417
75.24,20,7,2.6458
75.32,20,10,3.1623
75.4,20,15,3.873
75.48,20,11,3.3166
75.56,20,9,3
75.64,20,23,4.7958
75.72,20,8,2.8284
75.8,20,10,3.1623
75.88,20,15,3.873
75.96,20,13,3.6056
76.04,20,9,3
76.12,20,12,3.4641
76.2,20,10,3.1623
76.28,20,11,3.3166
76.36,20,10,3.1623
76.44,20,12,3.4641
76.52,20,14,3.7417
76.6,20,17,4.1231
76.68,20,19,4.3589
76.76,20,13,3.6056
76.84,20,15,3.873
76.92,20,14,3.7417
77,20,10,3.1623
77.08,20,15,3.873
77.16,20,12,3.4641
77.24,20,18,4.2426
77.32,20,8,2.8284
77.4,20,16,4
77.48,20,7,2.6458
77.56,20,12,3.4641
77.64,20,13,3.6056
77.72,20,10,3.1623
77.8,20,12,3.4641
77.88,20,15,3.873
77.96,20,10,3.1623
78.04,20,13,3.6056
78.12,20,10,3.1623
78.2,20,17,4.1231
78.28,20,8,2.8284
78.36,20,7,2.6458
78.44,20,10,3.1623
78.52,20,16,4
78.6,20,9,3
78.68,20,7,2.6458
78.76,20,18,4.2426
78.84,20,15,3.873
78.92,20,10,3.1623
79,20,19,4.3589
79.08,20,17,4.1231
79.16,20,15,3.873
79.24,20,13,3.6056
79.32,20,8,2.8284
79.4,20,13,3.6056
79.48,20,7,2.6458
79.56,20,8,2.8284
79.64,20,18,4.2426
79.72,20,22,4.6904
79.8,20,12,3.4641
79.88,20,7,2.6458
79.96,20,9,3
