[Measurement conditions]
Sample identification,ITO
Comment - 1,"Configuration=3-axis cradle, Owner=User-1, Creation date=10/21/2019 2:49:51 PM"
Comment - 2,"Goniometer=Theta/Theta; Minimum step size 2Theta:0.0001; Minimum step size Omega:0.0001"
Comment - 3,"Sample stage=Chi-Phi-z stage 240 mm (reflection); Minimum step size Phi:0.01; Minimum step size Chi:0.01; Minimum step size Z:0.001"
Comment - 4,"Diffractometer system=EMPYREAN"
Comment - 5,"Measurement program=C:\Users\User\Desktop\Users\E.Rojas\20240206\gi20_80_1p0grad_0p08_10s_BBHD_div1d8_ASS1d32_4h10min02s.xrdmp, Identifier={61566FC5-F6C1-4FFF-9DD6-E5DCADD731D7}"
Comment - 6,"Fine Calibration Offset for 2Theta = 0.1774 deg"
Comment - 7,"Fine Calibration Offset for Omega = 0.0973 deg"
Anode material,Cu
K-Alpha1 wavelength,1.5405980
K-Alpha2 wavelength,1.5444260
Ratio K-Alpha2/K-Alpha1,0.500
Divergence slit,Fixed,0.19mm
Monochromator used,NO
Generator voltage, 45
Tube current, 40
File date and time,06/Feb/2024 11:19
Unit cell,
h k l, 0 0 0
Scan axis,2Theta
Scan range,20.00000,80.00000
Scan step size,0.0800000
No. of points, 750
Scan type,CONTINUOUS
Omega,1.0000
Phi,0.00
Psi,0.00
Z,5.216
Time per step,20.00
[Scan points]
Angle, TimePerStep, Intensity, ESD
20.04000, 20.00, 13.0, 3.6056
20.12000, 20.00, 11.0, 3.3166
20.20000, 20.00, 14.0, 3.7417
20.28000, 20.00, 12.0, 3.4641
20.36000, 20.00, 10.0, 3.1623
20.44000, 20.00, 19.0, 4.3589
20.52000, 20.00, 16.0, 4.0000
20.60000, 20.00, 10.0, 3.1623
20.68000, 20.00, 15.0, 3.8730
20.76000, 20.00, 16.0, 4.0000
20.84000, 20.00, 8.0, 2.8284
20.92000, 20.00, 19.0, 4.3589
21.00000, 20.00, 17.0, 4.1231
21.08000, 20.00, 23.0, 4.7958
21.16000, 20.00, 21.0, 4.5826
21.24000, 20.00, 15.0, 3.8730
21.32000, 20.00, 26.0, 5.0990
21.40000, 20.00, 27.0, 5.1962
21.48000, 20.00, 33.0, 5.7446
21.56000, 20.00, 28.0, 5.2915
21.64000, 20.00, 19.0, 4.3589
21.72000, 20.00, 18.0, 4.2426
21.80000, 20.00, 10.0, 3.1623
21.88000, 20.00, 21.0, 4.5826
21.96000, 20.00, 16.0, 4.0000
22.04000, 20.00, 17.0, 4.1231
22.12000, 20.00, 17.0, 4.1231
22.20000, 20.00, 12.0, 3.4641
22.28000, 20.00, 16.0, 4.0000
22.36000, 20.00, 14.0, 3.7417
22.44000, 20.00, 17.0, 4.1231
22.52000, 20.00, 20.0, 4.4721
22.60000, 20.00, 17.0, 4.1231
22.68000, 20.00, 14.0, 3.7417
22.76000, 20.00, 28.0, 5.2915
22.84000, 20.00, 13.0, 3.6056
22.92000, 20.00, 18.0, 4.2426
23.00000, 20.00, 17.0, 4.1231
23.08000, 20.00, 12.0, 3.4641
23.16000, 20.00, 13.0, 3.6056
23.24000, 20.00, 15.0, 3.8730
23.32000, 20.00, 7.0, 2.6458
23.40000, 20.00, 17.0, 4.1231
23.48000, 20.00, 13.0, 3.6056
23.56000, 20.00, 8.0, 2.8284
23.64000, 20.00, 12.0, 3.4641
23.72000, 20.00, 12.0, 3.4641
23.80000, 20.00, 10.0, 3.1623
23.88000, 20.00, 20.0, 4.4721
23.96000, 20.00, 9.0, 3.0000
24.04000, 20.00, 15.0, 3.8730
24.12000, 20.00, 14.0, 3.7417
24.20000, 20.00, 11.0, 3.3166
24.28000, 20.00, 19.0, 4.3589
24.36000, 20.00, 15.0, 3.8730
24.44000, 20.00, 14.0, 3.7417
24.52000, 20.00, 17.0, 4.1231
24.60000, 20.00, 20.0, 4.4721
24.68000, 20.00, 8.0, 2.8284
24.76000, 20.00, 7.0, 2.6458
24.84000, 20.00, 17.0, 4.1231
24.92000, 20.00, 16.0, 4.0000
25.00000, 20.00, 14.0, 3.7417
25.08000, 20.00, 16.0, 4.0000
25.16000, 20.00, 14.0, 3.7417
25.24000, 20.00, 12.0, 3.4641
25.32000, 20.00, 12.0, 3.4641
25.40000, 20.00, 21.0, 4.5826
25.48000, 20.00, 20.0, 4.4721
25.56000, 20.00, 21.0, 4.5826
25.64000, 20.00, 17.0, 4.1231
25.72000, 20.00, 13.0, 3.6056
25.80000, 20.00, 9.0, 3.0000
25.88000, 20.00, 17.0, 4.1231
25.96000, 20.00, 12.0, 3.4641
26.04000, 20.00, 14.0, 3.7417
26.12000, 20.00, 20.0, 4.4721
26.20000, 20.00, 15.0, 3.8730
26.28000, 20.00, 17.0, 4.1231
26.36000, 20.00, 18.0, 4.2426
26.44000, 20.00, 17.0, 4.1231
26.52000, 20.00, 16.0, 4.0000
26.60000, 20.00, 11.0, 3.3166
26.68000, 20.00, 13.0, 3.6056
26.76000, 20.00, 19.0, 4.3589
26.84000, 20.00, 28.0, 5.2915
26.92000, 20.00, 17.0, 4.1231
27.00000, 20.00, 11.0, 3.3166
27.08000, 20.00, 17.0, 4.1231
27.16000, 20.00, 19.0, 4.3589
27.24000, 20.00, 12.0, 3.4641
27.32000, 20.00, 16.0, 4.0000
27.40000, 20.00, 18.0, 4.2426
27.48000, 20.00, 16.0, 4.0000
27.56000, 20.00, 16.0, 4.0000
27.64000, 20.00, 16.0, 4.0000
27.72000, 20.00, 21.0, 4.5826
27.80000, 20.00, 17.0, 4.1231
27.88000, 20.00, 25.0, 5.0000
27.96000, 20.00, 13.0, 3.6056
28.04000, 20.00, 20.0, 4.4721
28.12000, 20.00, 9.0, 3.0000
28.20000, 20.00, 19.0, 4.3589
28.28000, 20.00, 9.0, 3.0000
28.36000, 20.00, 23.0, 4.7958
28.44000, 20.00, 20.0, 4.4721
28.52000, 20.00, 19.0, 4.3589
28.60000, 20.00, 19.0, 4.3589
28.68000, 20.00, 20.0, 4.4721
28.76000, 20.00, 20.0, 4.4721
28.84000, 20.00, 22.0, 4.6904
28.92000, 20.00, 20.0, 4.4721
29.00000, 20.00, 18.0, 4.2426
29.08000, 20.00, 21.0, 4.5826
29.16000, 20.00, 22.0, 4.6904
29.24000, 20.00, 22.0, 4.6904
29.32000, 20.00, 15.0, 3.8730
29.40000, 20.00, 18.0, 4.2426
29.48000, 20.00, 23.0, 4.7958
29.56000, 20.00, 17.0, 4.1231
29.64000, 20.00, 10.0, 3.1623
29.72000, 20.00, 14.0, 3.7417
29.80000, 20.00, 19.0, 4.3589
29.88000, 20.00, 20.0, 4.4721
29.96000, 20.00, 17.0, 4.1231
30.04000, 20.00, 22.0, 4.6904
30.12000, 20.00, 20.0, 4.4721
30.20000, 20.00, 42.0, 6.4807
30.28000, 20.00, 78.0, 8.8318
30.36000, 20.00, 112.0, 10.5830
30.44000, 20.00, 115.0, 10.7238
30.52000, 20.00, 128.0, 11.3137
30.60000, 20.00, 90.0, 9.4868
30.68000, 20.00, 54.0, 7.3485
30.76000, 20.00, 47.0, 6.8557
30.84000, 20.00, 30.0, 5.4772
30.92000, 20.00, 24.0, 4.8990
31.00000, 20.00, 17.0, 4.1231
31.08000, 20.00, 21.0, 4.5826
31.16000, 20.00, 10.0, 3.1623
31.24000, 20.00, 18.0, 4.2426
31.32000, 20.00, 19.0, 4.3589
31.40000, 20.00, 9.0, 3.0000
31.48000, 20.00, 16.0, 4.0000
31.56000, 20.00, 23.0, 4.7958
31.64000, 20.00, 18.0, 4.2426
31.72000, 20.00, 13.0, 3.6056
31.80000, 20.00, 11.0, 3.3166
31.88000, 20.00, 10.0, 3.1623
31.96000, 20.00, 12.0, 3.4641
32.04000, 20.00, 18.0, 4.2426
32.12000, 20.00, 10.0, 3.1623
32.20000, 20.00, 12.0, 3.4641
32.28000, 20.00, 15.0, 3.8730
32.36000, 20.00, 18.0, 4.2426
32.44000, 20.00, 15.0, 3.8730
32.52000, 20.00, 14.0, 3.7417
32.60000, 20.00, 10.0, 3.1623
32.68000, 20.00, 16.0, 4.0000
32.76000, 20.00, 8.0, 2.8284
32.84000, 20.00, 12.0, 3.4641
32.92000, 20.00, 17.0, 4.1231
33.00000, 20.00, 16.0, 4.0000
33.08000, 20.00, 17.0, 4.1231
33.16000, 20.00, 23.0, 4.7958
33.24000, 20.00, 12.0, 3.4641
33.32000, 20.00, 11.0, 3.3166
33.40000, 20.00, 14.0, 3.7417
33.48000, 20.00, 13.0, 3.6056
33.56000, 20.00, 19.0, 4.3589
33.64000, 20.00, 13.0, 3.6056
33.72000, 20.00, 16.0, 4.0000
33.80000, 20.00, 19.0, 4.3589
33.88000, 20.00, 14.0, 3.7417
33.96000, 20.00, 15.0, 3.8730
34.04000, 20.00, 20.0, 4.4721
34.12000, 20.00, 14.0, 3.7417
34.20000, 20.00, 17.0, 4.1231
34.28000, 20.00, 11.0, 3.3166
34.36000, 20.00, 17.0, 4.1231
34.44000, 20.00, 12.0, 3.4641
34.52000, 20.00, 8.0, 2.8284
34.60000, 20.00, 17.0, 4.1231
34.68000, 20.00, 6.0, 2.4495
34.76000, 20.00, 18.0, 4.2426
34.84000, 20.00, 21.0, 4.5826
34.92000, 20.00, 17.0, 4.1231
35.00000, 20.00, 16.0, 4.0000
35.08000, 20.00, 17.0, 4.1231
35.16000, 20.00, 24.0, 4.8990
35.24000, 20.00, 43.0, 6.5574
35.32000, 20.00, 45.0, 6.7082
35.40000, 20.00, 56.0, 7.4833
35.48000, 20.00, 38.0, 6.1644
35.56000, 20.00, 24.0, 4.8990
35.64000, 20.00, 20.0, 4.4721
35.72000, 20.00, 14.0, 3.7417
35.80000, 20.00, 13.0, 3.6056
35.88000, 20.00, 13.0, 3.6056
35.96000, 20.00, 16.0, 4.0000
36.04000, 20.00, 16.0, 4.0000
36.12000, 20.00, 4.0, 2.0000
36.20000, 20.00, 7.0, 2.6458
36.28000, 20.00, 13.0, 3.6056
36.36000, 20.00, 19.0, 4.3589
36.44000, 20.00, 7.0, 2.6458
36.52000, 20.00, 11.0, 3.3166
36.60000, 20.00, 13.0, 3.6056
36.68000, 20.00, 10.0, 3.1623
36.76000, 20.00, 10.0, 3.1623
36.84000, 20.00, 8.0, 2.8284
36.92000, 20.00, 8.0, 2.8284
37.00000, 20.00, 13.0, 3.6056
37.08000, 20.00, 15.0, 3.8730
37.16000, 20.00, 9.0, 3.0000
37.24000, 20.00, 7.0, 2.6458
37.32000, 20.00, 9.0, 3.0000
37.40000, 20.00, 12.0, 3.4641
37.48000, 20.00, 15.0, 3.8730
37.56000, 20.00, 16.0, 4.0000
37.64000, 20.00, 20.0, 4.4721
37.72000, 20.00, 8.0, 2.8284
37.80000, 20.00, 12.0, 3.4641
37.88000, 20.00, 13.0, 3.6056
37.96000, 20.00, 13.0, 3.6056
38.04000, 20.00, 19.0, 4.3589
38.12000, 20.00, 10.0, 3.1623
38.20000, 20.00, 7.0, 2.6458
38.28000, 20.00, 10.0, 3.1623
38.36000, 20.00, 14.0, 3.7417
38.44000, 20.00, 10.0, 3.1623
38.52000, 20.00, 10.0, 3.1623
38.60000, 20.00, 11.0, 3.3166
38.68000, 20.00, 13.0, 3.6056
38.76000, 20.00, 9.0, 3.0000
38.84000, 20.00, 7.0, 2.6458
38.92000, 20.00, 6.0, 2.4495
39.00000, 20.00, 14.0, 3.7417
39.08000, 20.00, 15.0, 3.8730
39.16000, 20.00, 7.0, 2.6458
39.24000, 20.00, 13.0, 3.6056
39.32000, 20.00, 11.0, 3.3166
39.40000, 20.00, 12.0, 3.4641
39.48000, 20.00, 9.0, 3.0000
39.56000, 20.00, 16.0, 4.0000
39.64000, 20.00, 6.0, 2.4495
39.72000, 20.00, 11.0, 3.3166
39.80000, 20.00, 18.0, 4.2426
39.88000, 20.00, 6.0, 2.4495
39.96000, 20.00, 8.0, 2.8284
40.04000, 20.00, 11.0, 3.3166
40.12000, 20.00, 5.0, 2.2361
40.20000, 20.00, 13.0, 3.6056
40.28000, 20.00, 15.0, 3.8730
40.36000, 20.00, 13.0, 3.6056
40.44000, 20.00, 11.0, 3.3166
40.52000, 20.00, 7.0, 2.6458
40.60000, 20.00, 13.0, 3.6056
40.68000, 20.00, 14.0, 3.7417
40.76000, 20.00, 13.0, 3.6056
40.84000, 20.00, 12.0, 3.4641
40.92000, 20.00, 11.0, 3.3166
41.00000, 20.00, 15.0, 3.8730
41.08000, 20.00, 13.0, 3.6056
41.16000, 20.00, 11.0, 3.3166
41.24000, 20.00, 18.0, 4.2426
41.32000, 20.00, 14.0, 3.7417
41.40000, 20.00, 12.0, 3.4641
41.48000, 20.00, 13.0, 3.6056
41.56000, 20.00, 11.0, 3.3166
41.64000, 20.00, 12.0, 3.4641
41.72000, 20.00, 13.0, 3.6056
41.80000, 20.00, 9.0, 3.0000
41.88000, 20.00, 16.0, 4.0000
41.96000, 20.00, 11.0, 3.3166
42.04000, 20.00, 17.0, 4.1231
42.12000, 20.00, 19.0, 4.3589
42.20000, 20.00, 12.0, 3.4641
42.28000, 20.00, 8.0, 2.8284
42.36000, 20.00, 11.0, 3.3166
42.44000, 20.00, 16.0, 4.0000
42.52000, 20.00, 9.0, 3.0000
42.60000, 20.00, 11.0, 3.3166
42.68000, 20.00, 11.0, 3.3166
42.76000, 20.00, 13.0, 3.6056
42.84000, 20.00, 7.0, 2.6458
42.92000, 20.00, 11.0, 3.3166
43.00000, 20.00, 11.0, 3.3166
43.08000, 20.00, 11.0, 3.3166
43.16000, 20.00, 7.0, 2.6458
43.24000, 20.00, 13.0, 3.6056
43.32000, 20.00, 13.0, 3.6056
43.40000, 20.00, 15.0, 3.8730
43.48000, 20.00, 7.0, 2.6458
43.56000, 20.00, 9.0, 3.0000
43.64000, 20.00, 10.0, 3.1623
43.72000, 20.00, 9.0, 3.0000
43.80000, 20.00, 13.0, 3.6056
43.88000, 20.00, 6.0, 2.4495
43.96000, 20.00, 7.0, 2.6458
44.04000, 20.00, 15.0, 3.8730
44.12000, 20.00, 9.0, 3.0000
44.20000, 20.00, 13.0, 3.6056
44.28000, 20.00, 11.0, 3.3166
44.36000, 20.00, 9.0, 3.0000
44.44000, 20.00, 13.0, 3.6056
44.52000, 20.00, 13.0, 3.6056
44.60000, 20.00, 18.0, 4.2426
44.68000, 20.00, 10.0, 3.1623
44.76000, 20.00, 7.0, 2.6458
44.84000, 20.00, 9.0, 3.0000
44.92000, 20.00, 6.0, 2.4495
45.00000, 20.00, 8.0, 2.8284
45.08000, 20.00, 14.0, 3.7417
45.16000, 20.00, 9.0, 3.0000
45.24000, 20.00, 13.0, 3.6056
45.32000, 20.00, 18.0, 4.2426
45.40000, 20.00, 12.0, 3.4641
45.48000, 20.00, 28.0, 5.2915
45.56000, 20.00, 22.0, 4.6904
45.64000, 20.00, 19.0, 4.3589
45.72000, 20.00, 23.0, 4.7958
45.80000, 20.00, 13.0, 3.6056
45.88000, 20.00, 13.0, 3.6056
45.96000, 20.00, 13.0, 3.6056
46.04000, 20.00, 18.0, 4.2426
46.12000, 20.00, 14.0, 3.7417
46.20000, 20.00, 18.0, 4.2426
46.28000, 20.00, 8.0, 2.8284
46.36000, 20.00, 15.0, 3.8730
46.44000, 20.00, 14.0, 3.7417
46.52000, 20.00, 19.0, 4.3589
46.60000, 20.00, 16.0, 4.0000
46.68000, 20.00, 11.0, 3.3166
46.76000, 20.00, 7.0, 2.6458
46.84000, 20.00, 3.0, 1.7321
46.92000, 20.00, 13.0, 3.6056
47.00000, 20.00, 12.0, 3.4641
47.08000, 20.00, 13.0, 3.6056
47.16000, 20.00, 13.0, 3.6056
47.24000, 20.00, 11.0, 3.3166
47.32000, 20.00, 15.0, 3.8730
47.40000, 20.00, 11.0, 3.3166
47.48000, 20.00, 20.0, 4.4721
47.56000, 20.00, 18.0, 4.2426
47.64000, 20.00, 10.0, 3.1623
47.72000, 20.00, 7.0, 2.6458
47.80000, 20.00, 21.0, 4.5826
47.88000, 20.00, 12.0, 3.4641
47.96000, 20.00, 14.0, 3.7417
48.04000, 20.00, 14.0, 3.7417
48.12000, 20.00, 8.0, 2.8284
48.20000, 20.00, 10.0, 3.1623
48.28000, 20.00, 10.0, 3.1623
48.36000, 20.00, 14.0, 3.7417
48.44000, 20.00, 10.0, 3.1623
48.52000, 20.00, 12.0, 3.4641
48.60000, 20.00, 15.0, 3.8730
48.68000, 20.00, 19.0, 4.3589
48.76000, 20.00, 16.0, 4.0000
48.84000, 20.00, 15.0, 3.8730
48.92000, 20.00, 13.0, 3.6056
49.00000, 20.00, 11.0, 3.3166
49.08000, 20.00, 10.0, 3.1623
49.16000, 20.00, 13.0, 3.6056
49.24000, 20.00, 15.0, 3.8730
49.32000, 20.00, 16.0, 4.0000
49.40000, 20.00, 7.0, 2.6458
49.48000, 20.00, 8.0, 2.8284
49.56000, 20.00, 15.0, 3.8730
49.64000, 20.00, 18.0, 4.2426
49.72000, 20.00, 7.0, 2.6458
49.80000, 20.00, 20.0, 4.4721
49.88000, 20.00, 17.0, 4.1231
49.96000, 20.00, 9.0, 3.0000
50.04000, 20.00, 18.0, 4.2426
50.12000, 20.00, 17.0, 4.1231
50.20000, 20.00, 19.0, 4.3589
50.28000, 20.00, 15.0, 3.8730
50.36000, 20.00, 16.0, 4.0000
50.44000, 20.00, 14.0, 3.7417
50.52000, 20.00, 14.0, 3.7417
50.60000, 20.00, 35.0, 5.9161
50.68000, 20.00, 36.0, 6.0000
50.76000, 20.00, 38.0, 6.1644
50.84000, 20.00, 50.0, 7.0711
50.92000, 20.00, 46.0, 6.7823
51.00000, 20.00, 28.0, 5.2915
51.08000, 20.00, 32.0, 5.6569
51.16000, 20.00, 27.0, 5.1962
51.24000, 20.00, 25.0, 5.0000
51.32000, 20.00, 13.0, 3.6056
51.40000, 20.00, 11.0, 3.3166
51.48000, 20.00, 18.0, 4.2426
51.56000, 20.00, 20.0, 4.4721
51.64000, 20.00, 10.0, 3.1623
51.72000, 20.00, 20.0, 4.4721
51.80000, 20.00, 14.0, 3.7417
51.88000, 20.00, 10.0, 3.1623
51.96000, 20.00, 18.0, 4.2426
52.04000, 20.00, 15.0, 3.8730
52.12000, 20.00, 11.0, 3.3166
52.20000, 20.00, 14.0, 3.7417
52.28000, 20.00, 14.0, 3.7417
52.36000, 20.00, 18.0, 4.2426
52.44000, 20.00, 14.0, 3.7417
52.52000, 20.00, 13.0, 3.6056
52.60000, 20.00, 16.0, 4.0000
52.68000, 20.00, 14.0, 3.7417
52.76000, 20.00, 11.0, 3.3166
52.84000, 20.00, 11.0, 3.3166
52.92000, 20.00, 20.0, 4.4721
53.00000, 20.00, 14.0, 3.7417
53.08000, 20.00, 6.0, 2.4495
53.16000, 20.00, 12.0, 3.4641
53.24000, 20.00, 17.0, 4.1231
53.32000, 20.00, 6.0, 2.4495
53.40000, 20.00, 18.0, 4.2426
53.48000, 20.00, 15.0, 3.8730
53.56000, 20.00, 17.0, 4.1231
53.64000, 20.00, 18.0, 4.2426
53.72000, 20.00, 14.0, 3.7417
53.80000, 20.00, 14.0, 3.7417
53.88000, 20.00, 11.0, 3.3166
53.96000, 20.00, 16.0, 4.0000
54.04000, 20.00, 11.0, 3.3166
54.12000, 20.00, 16.0, 4.0000
54.20000, 20.00, 14.0, 3.7417
54.28000, 20.00, 15.0, 3.8730
54.36000, 20.00, 15.0, 3.8730
54.44000, 20.00, 16.0, 4.0000
54.52000, 20.00, 10.0, 3.1623
54.60000, 20.00, 14.0, 3.7417
54.68000, 20.00, 7.0, 2.6458
54.76000, 20.00, 11.0, 3.3166
54.84000, 20.00, 8.0, 2.8284
54.92000, 20.00, 19.0, 4.3589
55.00000, 20.00, 11.0, 3.3166
55.08000, 20.00, 18.0, 4.2426
55.16000, 20.00, 13.0, 3.6056
55.24000, 20.00, 16.0, 4.0000
55.32000, 20.00, 10.0, 3.1623
55.40000, 20.00, 10.0, 3.1623
55.48000, 20.00, 15.0, 3.8730
55.56000, 20.00, 15.0, 3.8730
55.64000, 20.00, 19.0, 4.3589
55.72000, 20.00, 12.0, 3.4641
55.80000, 20.00, 23.0, 4.7958
55.88000, 20.00, 22.0, 4.6904
55.96000, 20.00, 21.0, 4.5826
56.04000, 20.00, 12.0, 3.4641
56.12000, 20.00, 18.0, 4.2426
56.20000, 20.00, 22.0, 4.6904
56.28000, 20.00, 15.0, 3.8730
56.36000, 20.00, 18.0, 4.2426
56.44000, 20.00, 12.0, 3.4641
56.52000, 20.00, 13.0, 3.6056
56.60000, 20.00, 15.0, 3.8730
56.68000, 20.00, 10.0, 3.1623
56.76000, 20.00, 16.0, 4.0000
56.84000, 20.00, 13.0, 3.6056
56.92000, 20.00, 9.0, 3.0000
57.00000, 20.00, 5.0, 2.2361
57.08000, 20.00, 13.0, 3.6056
57.16000, 20.00, 9.0, 3.0000
57.24000, 20.00, 10.0, 3.1623
57.32000, 20.00, 15.0, 3.8730
57.40000, 20.00, 11.0, 3.3166
57.48000, 20.00, 10.0, 3.1623
57.56000, 20.00, 15.0, 3.8730
57.64000, 20.00, 18.0, 4.2426
57.72000, 20.00, 18.0, 4.2426
57.80000, 20.00, 17.0, 4.1231
57.88000, 20.00, 18.0, 4.2426
57.96000, 20.00, 14.0, 3.7417
58.04000, 20.00, 14.0, 3.7417
58.12000, 20.00, 14.0, 3.7417
58.20000, 20.00, 18.0, 4.2426
58.28000, 20.00, 17.0, 4.1231
58.36000, 20.00, 13.0, 3.6056
58.44000, 20.00, 17.0, 4.1231
58.52000, 20.00, 12.0, 3.4641
58.60000, 20.00, 15.0, 3.8730
58.68000, 20.00, 14.0, 3.7417
58.76000, 20.00, 20.0, 4.4721
58.84000, 20.00, 12.0, 3.4641
58.92000, 20.00, 16.0, 4.0000
59.00000, 20.00, 19.0, 4.3589
59.08000, 20.00, 12.0, 3.4641
59.16000, 20.00, 23.0, 4.7958
59.24000, 20.00, 20.0, 4.4721
59.32000, 20.00, 21.0, 4.5826
59.40000, 20.00, 12.0, 3.4641
59.48000, 20.00, 19.0, 4.3589
59.56000, 20.00, 11.0, 3.3166
59.64000, 20.00, 16.0, 4.0000
59.72000, 20.00, 10.0, 3.1623
59.80000, 20.00, 14.0, 3.7417
59.88000, 20.00, 19.0, 4.3589
59.96000, 20.00, 15.0, 3.8730
60.04000, 20.00, 13.0, 3.6056
60.12000, 20.00, 12.0, 3.4641
60.20000, 20.00, 25.0, 5.0000
60.28000, 20.00, 33.0, 5.7446
60.36000, 20.00, 23.0, 4.7958
60.44000, 20.00, 27.0, 5.1962
60.52000, 20.00, 27.0, 5.1962
60.60000, 20.00, 26.0, 5.0990
60.68000, 20.00, 34.0, 5.8310
60.76000, 20.00, 23.0, 4.7958
60.84000, 20.00, 19.0, 4.3589
60.92000, 20.00, 21.0, 4.5826
61.00000, 20.00, 11.0, 3.3166
61.08000, 20.00, 14.0, 3.7417
61.16000, 20.00, 16.0, 4.0000
61.24000, 20.00, 13.0, 3.6056
61.32000, 20.00, 17.0, 4.1231
61.40000, 20.00, 21.0, 4.5826
61.48000, 20.00, 9.0, 3.0000
61.56000, 20.00, 14.0, 3.7417
61.64000, 20.00, 11.0, 3.3166
61.72000, 20.00, 14.0, 3.7417
61.80000, 20.00, 9.0, 3.0000
61.88000, 20.00, 17.0, 4.1231
61.96000, 20.00, 17.0, 4.1231
62.04000, 20.00, 15.0, 3.8730
62.12000, 20.00, 17.0, 4.1231
62.20000, 20.00, 14.0, 3.7417
62.28000, 20.00, 9.0, 3.0000
62.36000, 20.00, 14.0, 3.7417
62.44000, 20.00, 17.0, 4.1231
62.52000, 20.00, 16.0, 4.0000
62.60000, 20.00, 18.0, 4.2426
62.68000, 20.00, 14.0, 3.7417
62.76000, 20.00, 9.0, 3.0000
62.84000, 20.00, 17.0, 4.1231
62.92000, 20.00, 8.0, 2.8284
63.00000, 20.00, 17.0, 4.1231
63.08000, 20.00, 13.0, 3.6056
63.16000, 20.00, 12.0, 3.4641
63.24000, 20.00, 18.0, 4.2426
63.32000, 20.00, 6.0, 2.4495
63.40000, 20.00, 21.0, 4.5826
63.48000, 20.00, 23.0, 4.7958
63.56000, 20.00, 22.0, 4.6904
63.64000, 20.00, 20.0, 4.4721
63.72000, 20.00, 17.0, 4.1231
63.80000, 20.00, 15.0, 3.8730
63.88000, 20.00, 11.0, 3.3166
63.96000, 20.00, 9.0, 3.0000
64.04000, 20.00, 14.0, 3.7417
64.12000, 20.00, 14.0, 3.7417
64.20000, 20.00, 14.0, 3.7417
64.28000, 20.00, 19.0, 4.3589
64.36000, 20.00, 15.0, 3.8730
64.44000, 20.00, 16.0, 4.0000
64.52000, 20.00, 12.0, 3.4641
64.60000, 20.00, 15.0, 3.8730
64.68000, 20.00, 14.0, 3.7417
64.76000, 20.00, 17.0, 4.1231
64.84000, 20.00, 16.0, 4.0000
64.92000, 20.00, 8.0, 2.8284
65.00000, 20.00, 19.0, 4.3589
65.08000, 20.00, 15.0, 3.8730
65.16000, 20.00, 13.0, 3.6056
65.24000, 20.00, 13.0, 3.6056
65.32000, 20.00, 14.0, 3.7417
65.40000, 20.00, 8.0, 2.8284
65.48000, 20.00, 10.0, 3.1623
65.56000, 20.00, 12.0, 3.4641
65.64000, 20.00, 15.0, 3.8730
65.72000, 20.00, 18.0, 4.2426
65.80000, 20.00, 17.0, 4.1231
65.88000, 20.00, 12.0, 3.4641
65.96000, 20.00, 11.0, 3.3166
66.04000, 20.00, 6.0, 2.4495
66.12000, 20.00, 12.0, 3.4641
66.20000, 20.00, 16.0, 4.0000
66.28000, 20.00, 16.0, 4.0000
66.36000, 20.00, 21.0, 4.5826
66.44000, 20.00, 20.0, 4.4721
66.52000, 20.00, 20.0, 4.4721
66.60000, 20.00, 13.0, 3.6056
66.68000, 20.00, 13.0, 3.6056
66.76000, 20.00, 9.0, 3.0000
66.84000, 20.00, 11.0, 3.3166
66.92000, 20.00, 11.0, 3.3166
67.00000, 20.00, 9.0, 3.0000
67.08000, 20.00, 8.0, 2.8284
67.16000, 20.00, 14.0, 3.7417
67.24000, 20.00, 20.0, 4.4721
67.32000, 20.00, 11.0, 3.3166
67.40000, 20.00, 6.0, 2.4495
67.48000, 20.00, 13.0, 3.6056
67.56000, 20.00, 15.0, 3.8730
67.64000, 20.00, 10.0, 3.1623
67.72000, 20.00, 15.0, 3.8730
67.80000, 20.00, 14.0, 3.7417
67.88000, 20.00, 16.0, 4.0000
67.96000, 20.00, 18.0, 4.2426
68.04000, 20.00, 15.0, 3.8730
68.12000, 20.00, 24.0, 4.8990
68.20000, 20.00, 12.0, 3.4641
68.28000, 20.00, 14.0, 3.7417
68.36000, 20.00, 6.0, 2.4495
68.44000, 20.00, 10.0, 3.1623
68.52000, 20.00, 9.0, 3.0000
68.60000, 20.00, 20.0, 4.4721
68.68000, 20.00, 11.0, 3.3166
68.76000, 20.00, 6.0, 2.4495
68.84000, 20.00, 15.0, 3.8730
68.92000, 20.00, 7.0, 2.6458
69.00000, 20.00, 20.0, 4.4721
69.08000, 20.00, 14.0, 3.7417
69.16000, 20.00, 10.0, 3.1623
69.24000, 20.00, 16.0, 4.0000
69.32000, 20.00, 11.0, 3.3166
69.40000, 20.00, 16.0, 4.0000
69.48000, 20.00, 11.0, 3.3166
69.56000, 20.00, 21.0, 4.5826
69.64000, 20.00, 12.0, 3.4641
69.72000, 20.00, 15.0, 3.8730
69.80000, 20.00, 14.0, 3.7417
69.88000, 20.00, 21.0, 4.5826
69.96000, 20.00, 18.0, 4.2426
70.04000, 20.00, 14.0, 3.7417
70.12000, 20.00, 14.0, 3.7417
70.20000, 20.00, 12.0, 3.4641
70.28000, 20.00, 13.0, 3.6056
70.36000, 20.00, 8.0, 2.8284
70.44000, 20.00, 14.0, 3.7417
70.52000, 20.00, 7.0, 2.6458
70.60000, 20.00, 11.0, 3.3166
70.68000, 20.00, 9.0, 3.0000
70.76000, 20.00, 19.0, 4.3589
70.84000, 20.00, 16.0, 4.0000
70.92000, 20.00, 13.0, 3.6056
71.00000, 20.00, 18.0, 4.2426
71.08000, 20.00, 11.0, 3.3166
71.16000, 20.00, 7.0, 2.6458
71.24000, 20.00, 17.0, 4.1231
71.32000, 20.00, 11.0, 3.3166
71.40000, 20.00, 14.0, 3.7417
71.48000, 20.00, 16.0, 4.0000
71.56000, 20.00, 16.0, 4.0000
71.64000, 20.00, 10.0, 3.1623
71.72000, 20.00, 14.0, 3.7417
71.80000, 20.00, 13.0, 3.6056
71.88000, 20.00, 18.0, 4.2426
71.96000, 20.00, 12.0, 3.4641
72.04000, 20.00, 9.0, 3.0000
72.12000, 20.00, 14.0, 3.7417
72.20000, 20.00, 14.0, 3.7417
72.28000, 20.00, 14.0, 3.7417
72.36000, 20.00, 14.0, 3.7417
72.44000, 20.00, 14.0, 3.7417
72.52000, 20.00, 11.0, 3.3166
72.60000, 20.00, 15.0, 3.8730
72.68000, 20.00, 16.0, 4.0000
72.76000, 20.00, 8.0, 2.8284
72.84000, 20.00, 14.0, 3.7417
72.92000, 20.00, 11.0, 3.3166
73.00000, 20.00, 14.0, 3.7417
73.08000, 20.00, 10.0, 3.1623
73.16000, 20.00, 11.0, 3.3166
73.24000, 20.00, 10.0, 3.1623
73.32000, 20.00, 21.0, 4.5826
73.40000, 20.00, 10.0, 3.1623
73.48000, 20.00, 15.0, 3.8730
73.56000, 20.00, 18.0, 4.2426
73.64000, 20.00, 9.0, 3.0000
73.72000, 20.00, 11.0, 3.3166
73.80000, 20.00, 16.0, 4.0000
73.88000, 20.00, 12.0, 3.4641
73.96000, 20.00, 18.0, 4.2426
74.04000, 20.00, 8.0, 2.8284
74.12000, 20.00, 9.0, 3.0000
74.20000, 20.00, 14.0, 3.7417
74.28000, 20.00, 12.0, 3.4641
74.36000, 20.00, 17.0, 4.1231
74.44000, 20.00, 21.0, 4.5826
74.52000, 20.00, 18.0, 4.2426
74.60000, 20.00, 14.0, 3.7417
74.68000, 20.00, 14.0, 3.7417
74.76000, 20.00, 11.0, 3.3166
74.84000, 20.00, 22.0, 4.6904
74.92000, 20.00, 14.0, 3.7417
75.00000, 20.00, 10.0, 3.1623
75.08000, 20.00, 15.0, 3.8730
75.16000, 20.00, 14.0, 3.7417
75.24000, 20.00, 7.0, 2.6458
75.32000, 20.00, 10.0, 3.1623
75.40000, 20.00, 15.0, 3.8730
75.48000, 20.00, 11.0, 3.3166
75.56000, 20.00, 9.0, 3.0000
75.64000, 20.00, 23.0, 4.7958
75.72000, 20.00, 8.0, 2.8284
75.80000, 20.00, 10.0, 3.1623
75.88000, 20.00, 15.0, 3.8730
75.96000, 20.00, 13.0, 3.6056
76.04000, 20.00, 9.0, 3.0000
76.12000, 20.00, 12.0, 3.4641
76.20000, 20.00, 10.0, 3.1623
76.28000, 20.00, 11.0, 3.3166
76.36000, 20.00, 10.0, 3.1623
76.44000, 20.00, 12.0, 3.4641
76.52000, 20.00, 14.0, 3.7417
76.60000, 20.00, 17.0, 4.1231
76.68000, 20.00, 19.0, 4.3589
76.76000, 20.00, 13.0, 3.6056
76.84000, 20.00, 15.0, 3.8730
76.92000, 20.00, 14.0, 3.7417
77.00000, 20.00, 10.0, 3.1623
77.08000, 20.00, 15.0, 3.8730
77.16000, 20.00, 12.0, 3.4641
77.24000, 20.00, 18.0, 4.2426
77.32000, 20.00, 8.0, 2.8284
77.40000, 20.00, 16.0, 4.0000
77.48000, 20.00, 7.0, 2.6458
77.56000, 20.00, 12.0, 3.4641
77.64000, 20.00, 13.0, 3.6056
77.72000, 20.00, 10.0, 3.1623
77.80000, 20.00, 12.0, 3.4641
77.88000, 20.00, 15.0, 3.8730
77.96000, 20.00, 10.0, 3.1623
78.04000, 20.00, 13.0, 3.6056
78.12000, 20.00, 10.0, 3.1623
78.20000, 20.00, 17.0, 4.1231
78.28000, 20.00, 8.0, 2.8284
78.36000, 20.00, 7.0, 2.6458
78.44000, 20.00, 10.0, 3.1623
78.52000, 20.00, 16.0, 4.0000
78.60000, 20.00, 9.0, 3.0000
78.68000, 20.00, 7.0, 2.6458
78.76000, 20.00, 18.0, 4.2426
78.84000, 20.00, 15.0, 3.8730
78.92000, 20.00, 10.0, 3.1623
79.00000, 20.00, 19.0, 4.3589
79.08000, 20.00, 17.0, 4.1231
79.16000, 20.00, 15.0, 3.8730
79.24000, 20.00, 13.0, 3.6056
79.32000, 20.00, 8.0, 2.8284
79.40000, 20.00, 13.0, 3.6056
79.48000, 20.00, 7.0, 2.6458
79.56000, 20.00, 8.0, 2.8284
79.64000, 20.00, 18.0, 4.2426
79.72000, 20.00, 22.0, 4.6904
79.80000, 20.00, 12.0, 3.4641
79.88000, 20.00, 7.0, 2.6458
79.96000, 20.00, 9.0, 3.0000
