[Measurement conditions],,,
Sample identification,ITO+WO3,,
Comment - 1,"Configuration=3-axis cradle, Owner=User-1, Creation date=10/21/2019 2:49:51 PM",,
Comment - 2,Goniometer=Theta/Theta; Minimum step size 2Theta:0.0001; Minimum step size Omega:0.0001,,
Comment - 3,Sample stage=Chi-Phi-z stage 240 mm (reflection); Minimum step size Phi:0.01; Minimum step size Chi:0.01; Minimum step size Z:0.001,,
Comment - 4,Diffractometer system=EMPYREAN,,
Comment - 5,"Measurement program=C:\Users\User\Desktop\Users\E.Rojas\20240206\gi20_80_1p0grad_0p08_10s_BBHD_div1d8_ASS1d32_4h10min02s.xrdmp, Identifier={61566FC5-F6C1-4FFF-9DD6-E5DCADD731D7}",,
Comment - 6,Fine Calibration Offset for 2Theta = 0.1702 deg,,
Comment - 7,Fine Calibration Offset for Omega = 0.2485 deg,,
Comment - 8,"Batch program=C:\Users\User\Desktop\Users\E.Rojas\20240206\Btach_gi20_80_1p0grad_0p08_10s_BBHD_div1d8_ASS1d32_4h10min02s.xrdmp, Identifier={CAC0F574-5C55-462A-AAB3-8713CE1CDAE7}",,
Anode material,Cu,,
K-Alpha1 wavelength,1.540598,,
K-Alpha2 wavelength,1.544426,,
Ratio K-Alpha2/K-Alpha1,0.5,,
Divergence slit,Fixed,0.19mm,
Monochromator used,NO,,
Generator voltage,45,,
Tube current,40,,
File date and time,2/6/2024 16:20,,
Unit cell,,,
h k l, 0 0 0,,
Scan axis,2Theta,,
Scan range,20,80,
Scan step size,0.08,,
No. of points,750,,
Scan type,CONTINUOUS,,
Omega,1,,
Phi,0,,
Psi,0,,
Z,5.208,,
Time per step,20,,
[Scan points],,,
Angle, TimePerStep, Intensity, ESD
20.04,20,18,4.2426
20.12,20,18,4.2426
20.2,20,12,3.4641
20.28,20,17,4.1231
20.36,20,25,5
20.44,20,15,3.873
20.52,20,15,3.873
20.6,20,17,4.1231
20.68,20,15,3.873
20.76,20,23,4.7958
20.84,20,13,3.6056
20.92,20,28,5.2915
21,20,19,4.3589
21.08,20,16,4
21.16,20,20,4.4721
21.24,20,15,3.873
21.32,20,14,3.7417
21.4,20,16,4
21.48,20,28,5.2915
21.56,20,17,4.1231
21.64,20,16,4
21.72,20,21,4.5826
21.8,20,18,4.2426
21.88,20,16,4
21.96,20,20,4.4721
22.04,20,15,3.873
22.12,20,11,3.3166
22.2,20,15,3.873
22.28,20,21,4.5826
22.36,20,6,2.4495
22.44,20,17,4.1231
22.52,20,14,3.7417
22.6,20,17,4.1231
22.68,20,14,3.7417
22.76,20,14,3.7417
22.84,20,19,4.3589
22.92,20,13,3.6056
23,20,25,5
23.08,20,19,4.3589
23.16,20,27,5.1962
23.24,20,14,3.7417
23.32,20,20,4.4721
23.4,20,29,5.3852
23.48,20,20,4.4721
23.56,20,22,4.6904
23.64,20,32,5.6569
23.72,20,17,4.1231
23.8,20,20,4.4721
23.88,20,20,4.4721
23.96,20,31,5.5678
24.04,20,20,4.4721
24.12,20,25,5
24.2,20,24,4.899
24.28,20,26,5.099
24.36,20,30,5.4772
24.44,20,17,4.1231
24.52,20,15,3.873
24.6,20,25,5
24.68,20,27,5.1962
24.76,20,28,5.2915
24.84,20,28,5.2915
24.92,20,24,4.899
25,20,29,5.3852
25.08,20,19,4.3589
25.16,20,31,5.5678
25.24,20,20,4.4721
25.32,20,22,4.6904
25.4,20,23,4.7958
25.48,20,23,4.7958
25.56,20,27,5.1962
25.64,20,27,5.1962
25.72,20,34,5.831
25.8,20,20,4.4721
25.88,20,22,4.6904
25.96,20,24,4.899
26.04,20,25,5
26.12,20,23,4.7958
26.2,20,23,4.7958
26.28,20,26,5.099
26.36,20,24,4.899
26.44,20,21,4.5826
26.52,20,15,3.873
26.6,20,24,4.899
26.68,20,18,4.2426
26.76,20,22,4.6904
26.84,20,22,4.6904
26.92,20,22,4.6904
27,20,24,4.899
27.08,20,29,5.3852
27.16,20,22,4.6904
27.24,20,36,6
27.32,20,27,5.1962
27.4,20,21,4.5826
27.48,20,27,5.1962
27.56,20,26,5.099
27.64,20,19,4.3589
27.72,20,28,5.2915
27.8,20,27,5.1962
27.88,20,34,5.831
27.96,20,27,5.1962
28.04,20,17,4.1231
28.12,20,25,5
28.2,20,30,5.4772
28.28,20,17,4.1231
28.36,20,21,4.5826
28.44,20,25,5
28.52,20,27,5.1962
28.6,20,19,4.3589
28.68,20,24,4.899
28.76,20,19,4.3589
28.84,20,13,3.6056
28.92,20,21,4.5826
29,20,24,4.899
29.08,20,30,5.4772
29.16,20,17,4.1231
29.24,20,23,4.7958
29.32,20,26,5.099
29.4,20,20,4.4721
29.48,20,24,4.899
29.56,20,21,4.5826
29.64,20,16,4
29.72,20,24,4.899
29.8,20,21,4.5826
29.88,20,17,4.1231
29.96,20,13,3.6056
30.04,20,23,4.7958
30.12,20,30,5.4772
30.2,20,29,5.3852
30.28,20,43,6.5574
30.36,20,58,7.6158
30.44,20,52,7.2111
30.52,20,56,7.4833
30.6,20,41,6.4031
30.68,20,24,4.899
30.76,20,31,5.5678
30.84,20,16,4
30.92,20,15,3.873
31,20,19,4.3589
31.08,20,10,3.1623
31.16,20,20,4.4721
31.24,20,16,4
31.32,20,12,3.4641
31.4,20,19,4.3589
31.48,20,20,4.4721
31.56,20,14,3.7417
31.64,20,11,3.3166
31.72,20,21,4.5826
31.8,20,20,4.4721
31.88,20,18,4.2426
31.96,20,15,3.873
32.04,20,19,4.3589
32.12,20,14,3.7417
32.2,20,12,3.4641
32.28,20,22,4.6904
32.36,20,10,3.1623
32.44,20,16,4
32.52,20,13,3.6056
32.6,20,22,4.6904
32.68,20,12,3.4641
32.76,20,18,4.2426
32.84,20,17,4.1231
32.92,20,10,3.1623
33,20,18,4.2426
33.08,20,18,4.2426
33.16,20,15,3.873
33.24,20,16,4
33.32,20,15,3.873
33.4,20,15,3.873
33.48,20,11,3.3166
33.56,20,20,4.4721
33.64,20,9,3
33.72,20,21,4.5826
33.8,20,20,4.4721
33.88,20,19,4.3589
33.96,20,10,3.1623
34.04,20,11,3.3166
34.12,20,18,4.2426
34.2,20,20,4.4721
34.28,20,7,2.6458
34.36,20,16,4
34.44,20,18,4.2426
34.52,20,21,4.5826
34.6,20,14,3.7417
34.68,20,21,4.5826
34.76,20,14,3.7417
34.84,20,10,3.1623
34.92,20,15,3.873
35,20,11,3.3166
35.08,20,25,5
35.16,20,14,3.7417
35.24,20,25,5
35.32,20,29,5.3852
35.4,20,30,5.4772
35.48,20,24,4.899
35.56,20,16,4
35.64,20,16,4
35.72,20,16,4
35.8,20,22,4.6904
35.88,20,13,3.6056
35.96,20,17,4.1231
36.04,20,16,4
36.12,20,10,3.1623
36.2,20,14,3.7417
36.28,20,13,3.6056
36.36,20,10,3.1623
36.44,20,16,4
36.52,20,13,3.6056
36.6,20,14,3.7417
36.68,20,16,4
36.76,20,11,3.3166
36.84,20,15,3.873
36.92,20,18,4.2426
37,20,17,4.1231
37.08,20,19,4.3589
37.16,20,20,4.4721
37.24,20,12,3.4641
37.32,20,15,3.873
37.4,20,8,2.8284
37.48,20,12,3.4641
37.56,20,21,4.5826
37.64,20,14,3.7417
37.72,20,15,3.873
37.8,20,13,3.6056
37.88,20,15,3.873
37.96,20,12,3.4641
38.04,20,11,3.3166
38.12,20,12,3.4641
38.2,20,18,4.2426
38.28,20,8,2.8284
38.36,20,12,3.4641
38.44,20,10,3.1623
38.52,20,11,3.3166
38.6,20,4,2
38.68,20,11,3.3166
38.76,20,15,3.873
38.84,20,18,4.2426
38.92,20,9,3
39,20,9,3
39.08,20,6,2.4495
39.16,20,10,3.1623
39.24,20,12,3.4641
39.32,20,13,3.6056
39.4,20,10,3.1623
39.48,20,13,3.6056
39.56,20,9,3
39.64,20,9,3
39.72,20,11,3.3166
39.8,20,17,4.1231
39.88,20,10,3.1623
39.96,20,7,2.6458
40.04,20,11,3.3166
40.12,20,14,3.7417
40.2,20,10,3.1623
40.28,20,15,3.873
40.36,20,12,3.4641
40.44,20,7,2.6458
40.52,20,8,2.8284
40.6,20,11,3.3166
40.68,20,14,3.7417
40.76,20,13,3.6056
40.84,20,3,1.7321
40.92,20,20,4.4721
41,20,10,3.1623
41.08,20,15,3.873
41.16,20,8,2.8284
41.24,20,10,3.1623
41.32,20,6,2.4495
41.4,20,15,3.873
41.48,20,10,3.1623
41.56,20,11,3.3166
41.64,20,14,3.7417
41.72,20,17,4.1231
41.8,20,10,3.1623
41.88,20,13,3.6056
41.96,20,14,3.7417
42.04,20,11,3.3166
42.12,20,9,3
42.2,20,15,3.873
42.28,20,9,3
42.36,20,8,2.8284
42.44,20,8,2.8284
42.52,20,15,3.873
42.6,20,14,3.7417
42.68,20,6,2.4495
42.76,20,16,4
42.84,20,8,2.8284
42.92,20,15,3.873
43,20,8,2.8284
43.08,20,16,4
43.16,20,12,3.4641
43.24,20,10,3.1623
43.32,20,10,3.1623
43.4,20,8,2.8284
43.48,20,13,3.6056
43.56,20,17,4.1231
43.64,20,16,4
43.72,20,15,3.873
43.8,20,18,4.2426
43.88,20,11,3.3166
43.96,20,17,4.1231
44.04,20,9,3
44.12,20,8,2.8284
44.2,20,8,2.8284
44.28,20,12,3.4641
44.36,20,10,3.1623
44.44,20,10,3.1623
44.52,20,11,3.3166
44.6,20,15,3.873
44.68,20,10,3.1623
44.76,20,11,3.3166
44.84,20,17,4.1231
44.92,20,20,4.4721
45,20,5,2.2361
45.08,20,13,3.6056
45.16,20,20,4.4721
45.24,20,11,3.3166
45.32,20,24,4.899
45.4,20,16,4
45.48,20,5,2.2361
45.56,20,19,4.3589
45.64,20,19,4.3589
45.72,20,8,2.8284
45.8,20,13,3.6056
45.88,20,15,3.873
45.96,20,10,3.1623
46.04,20,9,3
46.12,20,9,3
46.2,20,9,3
46.28,20,6,2.4495
46.36,20,7,2.6458
46.44,20,11,3.3166
46.52,20,6,2.4495
46.6,20,10,3.1623
46.68,20,11,3.3166
46.76,20,19,4.3589
46.84,20,8,2.8284
46.92,20,19,4.3589
47,20,14,3.7417
47.08,20,8,2.8284
47.16,20,13,3.6056
47.24,20,19,4.3589
47.32,20,9,3
47.4,20,7,2.6458
47.48,20,12,3.4641
47.56,20,11,3.3166
47.64,20,16,4
47.72,20,10,3.1623
47.8,20,10,3.1623
47.88,20,10,3.1623
47.96,20,12,3.4641
48.04,20,18,4.2426
48.12,20,10,3.1623
48.2,20,17,4.1231
48.28,20,13,3.6056
48.36,20,16,4
48.44,20,14,3.7417
48.52,20,13,3.6056
48.6,20,9,3
48.68,20,16,4
48.76,20,12,3.4641
48.84,20,18,4.2426
48.92,20,14,3.7417
49,20,18,4.2426
49.08,20,14,3.7417
49.16,20,16,4
49.24,20,16,4
49.32,20,11,3.3166
49.4,20,11,3.3166
49.48,20,10,3.1623
49.56,20,12,3.4641
49.64,20,13,3.6056
49.72,20,28,5.2915
49.8,20,17,4.1231
49.88,20,15,3.873
49.96,20,17,4.1231
50.04,20,9,3
50.12,20,10,3.1623
50.2,20,13,3.6056
50.28,20,21,4.5826
50.36,20,14,3.7417
50.44,20,16,4
50.52,20,17,4.1231
50.6,20,20,4.4721
50.68,20,29,5.3852
50.76,20,28,5.2915
50.84,20,16,4
50.92,20,24,4.899
51,20,27,5.1962
51.08,20,18,4.2426
51.16,20,13,3.6056
51.24,20,18,4.2426
51.32,20,15,3.873
51.4,20,15,3.873
51.48,20,16,4
51.56,20,10,3.1623
51.64,20,12,3.4641
51.72,20,16,4
51.8,20,8,2.8284
51.88,20,12,3.4641
51.96,20,17,4.1231
52.04,20,25,5
52.12,20,10,3.1623
52.2,20,17,4.1231
52.28,20,12,3.4641
52.36,20,12,3.4641
52.44,20,15,3.873
52.52,20,18,4.2426
52.6,20,14,3.7417
52.68,20,20,4.4721
52.76,20,16,4
52.84,20,12,3.4641
52.92,20,15,3.873
53,20,15,3.873
53.08,20,5,2.2361
53.16,20,18,4.2426
53.24,20,16,4
53.32,20,11,3.3166
53.4,20,5,2.2361
53.48,20,9,3
53.56,20,11,3.3166
53.64,20,17,4.1231
53.72,20,13,3.6056
53.8,20,11,3.3166
53.88,20,14,3.7417
53.96,20,15,3.873
54.04,20,23,4.7958
54.12,20,14,3.7417
54.2,20,15,3.873
54.28,20,11,3.3166
54.36,20,17,4.1231
54.44,20,24,4.899
54.52,20,6,2.4495
54.6,20,13,3.6056
54.68,20,15,3.873
54.76,20,17,4.1231
54.84,20,11,3.3166
54.92,20,13,3.6056
55,20,15,3.873
55.08,20,8,2.8284
55.16,20,8,2.8284
55.24,20,14,3.7417
55.32,20,3,1.7321
55.4,20,9,3
55.48,20,9,3
55.56,20,11,3.3166
55.64,20,17,4.1231
55.72,20,12,3.4641
55.8,20,9,3
55.88,20,18,4.2426
55.96,20,17,4.1231
56.04,20,8,2.8284
56.12,20,14,3.7417
56.2,20,15,3.873
56.28,20,14,3.7417
56.36,20,10,3.1623
56.44,20,10,3.1623
56.52,20,17,4.1231
56.6,20,16,4
56.68,20,16,4
56.76,20,12,3.4641
56.84,20,12,3.4641
56.92,20,9,3
57,20,11,3.3166
57.08,20,6,2.4495
57.16,20,15,3.873
57.24,20,17,4.1231
57.32,20,19,4.3589
57.4,20,16,4
57.48,20,14,3.7417
57.56,20,11,3.3166
57.64,20,10,3.1623
57.72,20,13,3.6056
57.8,20,14,3.7417
57.88,20,9,3
57.96,20,20,4.4721
58.04,20,17,4.1231
58.12,20,8,2.8284
58.2,20,13,3.6056
58.28,20,9,3
58.36,20,18,4.2426
58.44,20,11,3.3166
58.52,20,20,4.4721
58.6,20,10,3.1623
58.68,20,9,3
58.76,20,24,4.899
58.84,20,12,3.4641
58.92,20,15,3.873
59,20,12,3.4641
59.08,20,11,3.3166
59.16,20,15,3.873
59.24,20,10,3.1623
59.32,20,12,3.4641
59.4,20,13,3.6056
59.48,20,9,3
59.56,20,14,3.7417
59.64,20,10,3.1623
59.72,20,14,3.7417
59.8,20,15,3.873
59.88,20,21,4.5826
59.96,20,7,2.6458
60.04,20,12,3.4641
60.12,20,19,4.3589
60.2,20,22,4.6904
60.28,20,12,3.4641
60.36,20,22,4.6904
60.44,20,17,4.1231
60.52,20,15,3.873
60.6,20,5,2.2361
60.68,20,17,4.1231
60.76,20,22,4.6904
60.84,20,15,3.873
60.92,20,18,4.2426
61,20,16,4
61.08,20,15,3.873
61.16,20,14,3.7417
61.24,20,10,3.1623
61.32,20,16,4
61.4,20,11,3.3166
61.48,20,8,2.8284
61.56,20,12,3.4641
61.64,20,15,3.873
61.72,20,11,3.3166
61.8,20,7,2.6458
61.88,20,14,3.7417
61.96,20,8,2.8284
62.04,20,12,3.4641
62.12,20,18,4.2426
62.2,20,11,3.3166
62.28,20,14,3.7417
62.36,20,7,2.6458
62.44,20,13,3.6056
62.52,20,14,3.7417
62.6,20,8,2.8284
62.68,20,12,3.4641
62.76,20,8,2.8284
62.84,20,7,2.6458
62.92,20,12,3.4641
63,20,12,3.4641
63.08,20,13,3.6056
63.16,20,13,3.6056
63.24,20,12,3.4641
63.32,20,12,3.4641
63.4,20,15,3.873
63.48,20,17,4.1231
63.56,20,13,3.6056
63.64,20,16,4
63.72,20,16,4
63.8,20,11,3.3166
63.88,20,12,3.4641
63.96,20,19,4.3589
64.04,20,7,2.6458
64.12,20,8,2.8284
64.2,20,12,3.4641
64.28,20,13,3.6056
64.36,20,14,3.7417
64.44,20,12,3.4641
64.52,20,12,3.4641
64.6,20,11,3.3166
64.68,20,23,4.7958
64.76,20,16,4
64.84,20,18,4.2426
64.92,20,14,3.7417
65,20,11,3.3166
65.08,20,10,3.1623
65.16,20,9,3
65.24,20,20,4.4721
65.32,20,12,3.4641
65.4,20,8,2.8284
65.48,20,11,3.3166
65.56,20,12,3.4641
65.64,20,9,3
65.72,20,16,4
65.8,20,8,2.8284
65.88,20,9,3
65.96,20,6,2.4495
66.04,20,9,3
66.12,20,10,3.1623
66.2,20,13,3.6056
66.28,20,12,3.4641
66.36,20,15,3.873
66.44,20,14,3.7417
66.52,20,8,2.8284
66.6,20,11,3.3166
66.68,20,14,3.7417
66.76,20,12,3.4641
66.84,20,12,3.4641
66.92,20,12,3.4641
67,20,12,3.4641
67.08,20,13,3.6056
67.16,20,12,3.4641
67.24,20,11,3.3166
67.32,20,18,4.2426
67.4,20,11,3.3166
67.48,20,12,3.4641
67.56,20,8,2.8284
67.64,20,13,3.6056
67.72,20,15,3.873
67.8,20,14,3.7417
67.88,20,8,2.8284
67.96,20,14,3.7417
68.04,20,17,4.1231
68.12,20,9,3
68.2,20,8,2.8284
68.28,20,10,3.1623
68.36,20,15,3.873
68.44,20,7,2.6458
68.52,20,15,3.873
68.6,20,12,3.4641
68.68,20,10,3.1623
68.76,20,10,3.1623
68.84,20,10,3.1623
68.92,20,10,3.1623
69,20,13,3.6056
69.08,20,10,3.1623
69.16,20,16,4
69.24,20,7,2.6458
69.32,20,13,3.6056
69.4,20,11,3.3166
69.48,20,15,3.873
69.56,20,12,3.4641
69.64,20,13,3.6056
69.72,20,13,3.6056
69.8,20,10,3.1623
69.88,20,7,2.6458
69.96,20,13,3.6056
70.04,20,8,2.8284
70.12,20,11,3.3166
70.2,20,5,2.2361
70.28,20,9,3
70.36,20,13,3.6056
70.44,20,14,3.7417
70.52,20,6,2.4495
70.6,20,14,3.7417
70.68,20,11,3.3166
70.76,20,17,4.1231
70.84,20,6,2.4495
70.92,20,12,3.4641
71,20,10,3.1623
71.08,20,13,3.6056
71.16,20,7,2.6458
71.24,20,14,3.7417
71.32,20,11,3.3166
71.4,20,12,3.4641
71.48,20,6,2.4495
71.56,20,25,5
71.64,20,8,2.8284
71.72,20,11,3.3166
71.8,20,9,3
71.88,20,11,3.3166
71.96,20,8,2.8284
72.04,20,21,4.5826
72.12,20,12,3.4641
72.2,20,9,3
72.28,20,10,3.1623
72.36,20,8,2.8284
72.44,20,6,2.4495
72.52,20,10,3.1623
72.6,20,7,2.6458
72.68,20,11,3.3166
72.76,20,7,2.6458
72.84,20,13,3.6056
72.92,20,12,3.4641
73,20,16,4
73.08,20,13,3.6056
73.16,20,10,3.1623
73.24,20,16,4
73.32,20,10,3.1623
73.4,20,10,3.1623
73.48,20,8,2.8284
73.56,20,11,3.3166
73.64,20,12,3.4641
73.72,20,11,3.3166
73.8,20,13,3.6056
73.88,20,10,3.1623
73.96,20,12,3.4641
74.04,20,14,3.7417
74.12,20,8,2.8284
74.2,20,10,3.1623
74.28,20,16,4
74.36,20,7,2.6458
74.44,20,9,3
74.52,20,18,4.2426
74.6,20,11,3.3166
74.68,20,10,3.1623
74.76,20,9,3
74.84,20,7,2.6458
74.92,20,2,1.4142
75,20,12,3.4641
75.08,20,8,2.8284
75.16,20,11,3.3166
75.24,20,10,3.1623
75.32,20,14,3.7417
75.4,20,8,2.8284
75.48,20,10,3.1623
75.56,20,7,2.6458
75.64,20,14,3.7417
75.72,20,12,3.4641
75.8,20,9,3
75.88,20,9,3
75.96,20,10,3.1623
76.04,20,9,3
76.12,20,13,3.6056
76.2,20,14,3.7417
76.28,20,10,3.1623
76.36,20,3,1.7321
76.44,20,5,2.2361
76.52,20,11,3.3166
76.6,20,11,3.3166
76.68,20,8,2.8284
76.76,20,9,3
76.84,20,11,3.3166
76.92,20,11,3.3166
77,20,19,4.3589
77.08,20,12,3.4641
77.16,20,14,3.7417
77.24,20,11,3.3166
77.32,20,7,2.6458
77.4,20,9,3
77.48,20,9,3
77.56,20,13,3.6056
77.64,20,8,2.8284
77.72,20,13,3.6056
77.8,20,9,3
77.88,20,8,2.8284
77.96,20,14,3.7417
78.04,20,14,3.7417
78.12,20,11,3.3166
78.2,20,13,3.6056
78.28,20,15,3.873
78.36,20,5,2.2361
78.44,20,14,3.7417
78.52,20,13,3.6056
78.6,20,13,3.6056
78.68,20,13,3.6056
78.76,20,11,3.3166
78.84,20,10,3.1623
78.92,20,7,2.6458
79,20,14,3.7417
79.08,20,10,3.1623
79.16,20,11,3.3166
79.24,20,13,3.6056
79.32,20,14,3.7417
79.4,20,9,3
79.48,20,14,3.7417
79.56,20,3,1.7321
79.64,20,11,3.3166
79.72,20,9,3
79.8,20,13,3.6056
79.88,20,11,3.3166
79.96,20,10,3.1623
