Time (s)	WE(1).Potential (V)
2.08276899474151	-0.5401611328125
3.08276899221676	-0.53924560546875
4.082768989692	-0.53802490234375
5.08276898716724	-0.53680419921875
6.08276898464248	-0.535888671875
7.08276898211773	-0.53466796875
8.08276897959297	-0.53375244140625
9.08276897706821	-0.53253173828125
10.0827689745435	-0.5316162109375
11.0827689720187	-0.5303955078125
12.0827689694939	-0.52947998046875
13.0827689669692	-0.528564453125
14.0827689644444	-0.52734375
15.0827689619197	-0.52642822265625
16.0827689593949	-0.5255126953125
17.0827689568702	-0.52459716796875
18.0827689543454	-0.523681640625
19.0827689518206	-0.52276611328125
20.0827689492959	-0.52154541015625
21.0827689467711	-0.5206298828125
22.0827689442464	-0.51971435546875
23.0827689417216	-0.518798828125
24.0827689391969	-0.51788330078125
25.0827689366721	-0.5169677734375
26.0827689341473	-0.516357421875
27.0827689316226	-0.51544189453125
28.0827689290978	-0.5145263671875
29.0827689265731	-0.51361083984375
30.0827689240483	-0.5126953125
31.0827689215236	-0.5120849609375
32.0827689189988	-0.51116943359375
33.082768916474	-0.51025390625
34.0827689139493	-0.50933837890625
35.0827689114245	-0.50872802734375
36.0827689088998	-0.5078125
37.082768906375	-0.50689697265625
38.0827689038503	-0.50628662109375
39.0827689013255	-0.50537109375
40.0827688988007	-0.5047607421875
41.082768896276	-0.50384521484375
42.0827688937512	-0.50323486328125
43.0827688912265	-0.5023193359375
44.0827688887017	-0.501708984375
45.082768886177	-0.50079345703125
46.0827688836522	-0.50018310546875
47.0827688811274	-0.499267578125
48.0827688786027	-0.498565673828125
49.0827688760779	-0.497833251953125
50.0827688735532	-0.49713134765625
51.0827688710284	-0.496429443359375
52.0827688685036	-0.495697021484375
53.0827688659789	-0.4949951171875
54.0827688634541	-0.49432373046875
55.0827688609294	-0.493621826171875
56.0827688584046	-0.492919921875
57.0827688558799	-0.49224853515625
58.0827688533551	-0.4915771484375
59.0827688508303	-0.490936279296875
60.0827688483056	-0.490264892578125
61.0827688457808	-0.4896240234375
