Time (s)	WE(1).Potential (V)
2.07622399475804	0.51483154296875
3.07622399223328	0.51544189453125
4.07622398970852	0.5157470703125
5.07622398718377	0.51605224609375
6.07622398465901	0.51666259765625
7.07622398213425	0.5169677734375
8.07622397960949	0.517578125
9.07622397708474	0.51788330078125
10.07622397456	0.5181884765625
11.0762239720352	0.518798828125
12.0762239695105	0.51910400390625
13.0762239669857	0.5194091796875
14.076223964461	0.51971435546875
15.0762239619362	0.52032470703125
16.0762239594114	0.5206298828125
17.0762239568867	0.52093505859375
18.0762239543619	0.521240234375
19.0762239518372	0.52154541015625
20.0762239493124	0.52215576171875
21.0762239467876	0.5224609375
22.0762239442629	0.52276611328125
23.0762239417381	0.5230712890625
24.0762239392134	0.52337646484375
25.0762239366886	0.52398681640625
26.0762239341639	0.5242919921875
27.0762239316391	0.52459716796875
28.0762239291143	0.52490234375
29.0762239265896	0.52520751953125
30.0762239240648	0.5255126953125
31.0762239215401	0.52581787109375
32.0762239190153	0.526123046875
33.0762239164906	0.52642822265625
34.0762239139658	0.5267333984375
35.076223911441	0.52703857421875
36.0762239089163	0.52734375
37.0762239063915	0.52764892578125
38.0762239038668	0.5279541015625
39.076223901342	0.52825927734375
40.0762238988173	0.528564453125
41.0762238962925	0.52886962890625
42.0762238937677	0.5291748046875
43.076223891243	0.52947998046875
44.0762238887182	0.52978515625
45.0762238861935	0.53009033203125
46.0762238836687	0.5303955078125
47.076223881144	0.53070068359375
48.0762238786192	0.531005859375
49.0762238760944	0.53131103515625
50.0762238735697	0.5316162109375
51.0762238710449	0.53192138671875
52.0762238685202	0.5322265625
53.0762238659954	0.53253173828125
54.0762238634707	0.5328369140625
55.0762238609459	0.5328369140625
56.0762238584211	0.53314208984375
57.0762238558964	0.533447265625
58.0762238533716	0.53375244140625
59.0762238508469	0.5340576171875
60.0762238483221	0.53436279296875
61.0762238457974	0.53466796875
62.0762238432726	0.53466796875
63.0762238407478	0.53497314453125
64.0762238382231	0.5352783203125
65.0762238356983	0.53558349609375
66.0762238331736	0.535888671875
67.0762238306488	0.53619384765625
68.0762238281241	0.53619384765625
69.0762238255993	0.5364990234375
70.0762238230745	0.53680419921875
71.0762238205498	0.537109375
72.076223818025	0.53741455078125
73.0762238155003	0.53741455078125
74.0762238129755	0.5377197265625
75.0762238104508	0.53802490234375
76.076223807926	0.538330078125
77.0762238054012	0.53863525390625
78.0762238028765	0.53863525390625
79.0762238003517	0.5389404296875
80.076223797827	0.53924560546875
81.0762237953022	0.53955078125
82.0762237927775	0.53955078125
83.0762237902527	0.53985595703125
84.0762237877279	0.5401611328125
85.0762237852032	0.54046630859375
86.0762237826784	0.54046630859375
87.0762237801537	0.540771484375
88.0762237776289	0.54107666015625
89.0762237751042	0.5413818359375
90.0762237725794	0.5413818359375
91.0762237700546	0.54168701171875
92.0762237675299	0.5419921875
93.0762237650051	0.5419921875
94.0762237624804	0.54229736328125
95.0762237599556	0.5426025390625
96.0762237574309	0.5426025390625
97.0762237549061	0.54290771484375
98.0762237523813	0.543212890625
99.0762237498566	0.543212890625
100.076223747332	0.54351806640625
101.076223744807	0.5438232421875
102.076223742282	0.54412841796875
103.076223739758	0.54412841796875
104.076223737233	0.54443359375
105.076223734708	0.54473876953125
106.076223732183	0.54473876953125
107.076223729659	0.5450439453125
108.076223727134	0.54534912109375
109.076223724609	0.54534912109375
110.076223722084	0.545654296875
111.076223719559	0.54595947265625
112.076223717035	0.54595947265625
113.07622371451	0.5462646484375
114.076223711985	0.54656982421875
115.07622370946	0.54656982421875
116.076223706936	0.546875
117.076223704411	0.54718017578125
118.076223701886	0.54718017578125
119.076223699361	0.5474853515625
120.076223696837	0.5474853515625
121.076223694312	0.54779052734375
122.076223691787	0.54779052734375
123.076223689262	0.548095703125
124.076223686738	0.54840087890625
125.076223684213	0.54840087890625
126.076223681688	0.5487060546875
127.076223679163	0.5487060546875
128.076223676639	0.54901123046875
129.076223674114	0.54931640625
130.076223671589	0.54931640625
131.076223669064	0.54962158203125
132.07622366654	0.54962158203125
133.076223664015	0.5499267578125
134.07622366149	0.5499267578125
135.076223658965	0.55023193359375
136.076223656441	0.550537109375
137.076223653916	0.550537109375
138.076223651391	0.55084228515625
139.076223648866	0.55084228515625
140.076223646342	0.5511474609375
141.076223643817	0.55145263671875
142.076223641292	0.55145263671875
143.076223638767	0.5517578125
144.076223636243	0.5517578125
145.076223633718	0.55206298828125
146.076223631193	0.5523681640625
147.076223628668	0.5523681640625
148.076223626143	0.55267333984375
149.076223623619	0.55267333984375
150.076223621094	0.552978515625
151.076223618569	0.55328369140625
152.076223616044	0.55328369140625
153.07622361352	0.5535888671875
154.076223610995	0.5535888671875
155.07622360847	0.55389404296875
156.076223605945	0.55389404296875
157.076223603421	0.55419921875
158.076223600896	0.55419921875
159.076223598371	0.55450439453125
160.076223595846	0.5548095703125
161.076223593322	0.5548095703125
162.076223590797	0.55511474609375
163.076223588272	0.55511474609375
164.076223585747	0.555419921875
165.076223583223	0.555419921875
166.076223580698	0.55572509765625
167.076223578173	0.5560302734375
168.076223575648	0.5560302734375
169.076223573124	0.55633544921875
170.076223570599	0.55633544921875
171.076223568074	0.556640625
172.076223565549	0.556640625
173.076223563025	0.55694580078125
174.0762235605	0.5572509765625
175.076223557975	0.5572509765625
176.07622355545	0.5572509765625
177.076223552926	0.55755615234375
178.076223550401	0.55755615234375
179.076223547876	0.557861328125
180.076223545351	0.55816650390625
181.076223542826	0.55816650390625
