Time (s)	WE(1).Potential (V)
3726.13808359241	0.038641357421875
3727.13808358988	0.055908203125
3728.13808358736	0.071533203125
3729.13808358483	0.0858154296875
3730.13808358231	0.09893798828125
3731.13808357978	0.11114501953125
3732.13808357726	0.122406005859375
3733.13808357473	0.132843017578125
3734.13808357221	0.142547607421875
3735.13808356968	0.151611328125
3736.13808356716	0.1600341796875
3737.13808356463	0.16790771484375
3738.13808356211	0.175262451171875
3739.13808355958	0.18212890625
3740.13808355706	0.1885986328125
3741.13808355453	0.1947021484375
3742.13808355201	0.200408935546875
3743.13808354948	0.205810546875
3744.13808354696	0.210906982421875
3745.13808354444	0.21575927734375
3746.13808354191	0.2203369140625
3747.13808353939	0.22467041015625
3748.13808353686	0.2288818359375
3749.13808353434	0.232879638671875
3750.13808353181	0.236724853515625
3751.13808352929	0.24041748046875
3752.13808352676	0.243988037109375
3753.13808352424	0.24737548828125
3754.13808352171	0.250732421875
3755.13808351919	0.25396728515625
3756.13808351666	0.257110595703125
3757.13808351414	0.2601318359375
3758.13808351161	0.26312255859375
3759.13808350909	0.266021728515625
3760.13808350656	0.268890380859375
3761.13808350404	0.271697998046875
3762.13808350151	0.27447509765625
3763.13808349899	0.277191162109375
3764.13808349646	0.27984619140625
3765.13808349394	0.282501220703125
3766.13808349142	0.285125732421875
3767.13808348889	0.2877197265625
3768.13808348637	0.29034423828125
3769.13808348384	0.29290771484375
3770.13808348132	0.295440673828125
3771.13808347879	0.298065185546875
3772.13808347627	0.300628662109375
3773.13808347374	0.30316162109375
3774.13808347122	0.305755615234375
3775.13808346869	0.308380126953125
3776.13808346617	0.311004638671875
3777.13808346364	0.313629150390625
3778.13808346112	0.3162841796875
3779.13808345859	0.3189697265625
3780.13808345607	0.32171630859375
3781.13808345354	0.324493408203125
3782.13808345102	0.32733154296875
3783.13808344849	0.3302001953125
3784.13808344597	0.333160400390625
3785.13808344344	0.33612060546875
3786.13808344092	0.3392333984375
3787.1380834384	0.3424072265625
3788.13808343587	0.345611572265625
3789.13808343335	0.348846435546875
3790.13808343082	0.352203369140625
3791.1380834283	0.3555908203125
3792.13808342577	0.359100341796875
3793.13808342325	0.3626708984375
3794.13808342072	0.366363525390625
3795.1380834182	0.37005615234375
3796.13808341567	0.373809814453125
3797.13808341315	0.377532958984375
3798.13808341062	0.381317138671875
3799.1380834081	0.385162353515625
3800.13808340557	0.38897705078125
3801.13808340305	0.392852783203125
3802.13808340052	0.396697998046875
3803.138083398	0.400543212890625
3804.13808339547	0.40435791015625
3805.13808339295	0.408172607421875
3806.13808339042	0.411956787109375
3807.1380833879	0.415771484375
3808.13808338538	0.419677734375
3809.13808338285	0.4234619140625
3810.13808338033	0.42724609375
3811.1380833778	0.431060791015625
3812.13808337528	0.434906005859375
3813.13808337275	0.43878173828125
3814.13808337023	0.44268798828125
3815.1380833677	0.446533203125
3816.13808336518	0.450469970703125
3817.13808336265	0.454437255859375
3818.13808336013	0.45849609375
3819.1380833576	0.4625244140625
3820.13808335508	0.46661376953125
3821.13808335255	0.470672607421875
3822.13808335003	0.47479248046875
3823.1380833475	0.479095458984375
3824.13808334498	0.48333740234375
3825.13808334245	0.487640380859375
3826.13808333993	0.49200439453125
3827.13808333741	0.49639892578125
3828.13808333488	0.5010986328125
3829.13808333236	0.50537109375
3830.13808332983	0.50994873046875
3831.13808332731	0.51422119140625
3832.13808332478	0.518798828125
3833.13808332226	0.5230712890625
3834.13808331973	0.52734375
3835.13808331721	0.5316162109375
3836.13808331468	0.53558349609375
3837.13808331216	0.53955078125
3838.13808330963	0.54351806640625
3839.13808330711	0.54718017578125
3840.13808330458	0.550537109375
3841.13808330206	0.55389404296875
3842.13808329953	0.5572509765625
3843.13808329701	0.560302734375
3844.13808329448	0.56304931640625
3845.13808329196	0.5657958984375
3846.13808328943	0.5682373046875
3847.13808328691	0.5706787109375
3848.13808328439	0.57281494140625
3849.13808328186	0.574951171875
3850.13808327934	0.5767822265625
3851.13808327681	0.57861328125
3852.13808327429	0.58013916015625
3853.13808327176	0.5816650390625
3854.13808326924	0.58319091796875
3855.13808326671	0.58441162109375
3856.13808326419	0.5859375
3857.13808326166	0.587158203125
3858.13808325914	0.58807373046875
3859.13808325661	0.58929443359375
3860.13808325409	0.5902099609375
3861.13808325156	0.59112548828125
3862.13808324904	0.592041015625
3863.13808324651	0.59295654296875
3864.13808324399	0.5938720703125
3865.13808324146	0.594482421875
3866.13808323894	0.5950927734375
3867.13808323641	0.59600830078125
3868.13808323389	0.59661865234375
3869.13808323137	0.59722900390625
3870.13808322884	0.59783935546875
3871.13808322632	0.59844970703125
3872.13808322379	0.59906005859375
3873.13808322127	0.599365234375
3874.13808321874	0.5999755859375
3875.13808321622	0.6005859375
3876.13808321369	0.60089111328125
3877.13808321117	0.6011962890625
3878.13808320864	0.601806640625
3879.13808320612	0.60211181640625
3880.13808320359	0.6024169921875
3881.13808320107	0.60302734375
3882.13808319854	0.60333251953125
3883.13808319602	0.6036376953125
3884.13808319349	0.60394287109375
3885.13808319097	0.604248046875
3886.13808318844	0.60455322265625
3887.13808318592	0.6048583984375
3888.13808318339	0.60516357421875
3889.13808318087	0.60577392578125
3890.13808317835	0.60577392578125
3891.13808317582	0.6060791015625
3892.1380831733	0.60638427734375
3893.13808317077	0.606689453125
3894.13808316825	0.60699462890625
3895.13808316572	0.6072998046875
3896.1380831632	0.6072998046875
3897.13808316067	0.60760498046875
3898.13808315815	0.60791015625
3899.13808315562	0.60821533203125
3900.1380831531	0.60821533203125
3901.13808315057	0.6085205078125
3902.13808314805	0.60882568359375
3903.13808314552	0.60882568359375
3904.138083143	0.609130859375
3905.13808314047	0.60943603515625
