Time (s)	WE(1).Potential (V)
5.53480598602596	0.3291015625
6.5348059835012	0.32940673828125
7.53480598097644	0.329681396484375
8.53480597845169	0.329986572265625
9.53480597592693	0.33026123046875
10.5348059734022	0.330535888671875
11.5348059708774	0.330841064453125
12.5348059683527	0.331085205078125
13.5348059658279	0.331390380859375
14.5348059633031	0.3316650390625
15.5348059607784	0.33184814453125
16.5348059582536	0.332183837890625
17.5348059557289	0.332489013671875
18.5348059532041	0.33270263671875
19.5348059506794	0.333038330078125
20.5348059481546	0.3333740234375
21.5348059456298	0.33367919921875
22.5348059431051	0.334014892578125
23.5348059405803	0.334320068359375
24.5348059380556	0.334625244140625
25.5348059355308	0.334930419921875
26.5348059330061	0.335205078125
27.5348059304813	0.33551025390625
28.5348059279565	0.3358154296875
29.5348059254318	0.33612060546875
30.534805922907	0.336395263671875
31.5348059203823	0.336578369140625
32.5348059178575	0.336944580078125
33.5348059153328	0.337249755859375
34.534805912808	0.3375244140625
35.5348059102832	0.337799072265625
36.5348059077585	0.33807373046875
37.5348059052337	0.338348388671875
38.534805902709	0.338623046875
39.5348059001842	0.338897705078125
40.5348058976595	0.339202880859375
41.5348058951347	0.339447021484375
42.5348058926099	0.3397216796875
43.5348058900852	0.3399658203125
44.5348058875604	0.340240478515625
45.5348058850357	0.340484619140625
46.5348058825109	0.34075927734375
47.5348058799862	0.341033935546875
48.5348058774614	0.341278076171875
49.5348058749366	0.341552734375
50.5348058724119	0.341827392578125
51.5348058698871	0.342071533203125
52.5348058673624	0.34185791015625
53.5348058648376	0.342254638671875
54.5348058623129	0.342498779296875
55.5348058597881	0.3427734375
56.5348058572633	0.343048095703125
57.5348058547386	0.34332275390625
58.5348058522138	0.343597412109375
59.5348058496891	0.343841552734375
60.5348058471643	0.344085693359375
61.5348058446396	0.3443603515625
62.5348058421148	0.344635009765625
63.53480583959	0.344879150390625
64.5348058370653	0.34515380859375
