Time (s)	WE(1).Potential (V)
767.420716062449	-0.509033203125
768.420716059924	-0.4931640625
769.420716057399	-0.481719970703125
770.420716054875	-0.47259521484375
771.42071605235	-0.464935302734375
772.420716049825	-0.45831298828125
773.4207160473	-0.452423095703125
774.420716044776	-0.447113037109375
775.420716042251	-0.442291259765625
776.420716039726	-0.437835693359375
777.420716037201	-0.433685302734375
778.420716034677	-0.4298095703125
779.420716032152	-0.426177978515625
780.420716029627	-0.422698974609375
781.420716027102	-0.419403076171875
782.420716024578	-0.416259765625
783.420716022053	-0.41326904296875
784.420716019528	-0.410400390625
785.420716017003	-0.407623291015625
786.420716014479	-0.404937744140625
787.420716011954	-0.40234375
788.420716009429	-0.399810791015625
789.420716006904	-0.397369384765625
790.42071600438	-0.39495849609375
791.420716001855	-0.39263916015625
792.42071599933	-0.390350341796875
793.420715996805	-0.38812255859375
794.420715994281	-0.38592529296875
795.420715991756	-0.383758544921875
796.420715989231	-0.38165283203125
797.420715986706	-0.379547119140625
798.420715984181	-0.37750244140625
799.420715981657	-0.375457763671875
800.420715979132	-0.37347412109375
801.420715976607	-0.3714599609375
802.420715974082	-0.369476318359375
803.420715971558	-0.367523193359375
804.420715969033	-0.3656005859375
805.420715966508	-0.363677978515625
806.420715963983	-0.36175537109375
807.420715961459	-0.35986328125
808.420715958934	-0.35797119140625
809.420715956409	-0.3560791015625
810.420715953884	-0.35418701171875
811.42071595136	-0.352325439453125
812.420715948835	-0.3504638671875
813.42071594631	-0.34857177734375
814.420715943785	-0.346710205078125
815.420715941261	-0.344879150390625
816.420715938736	-0.343017578125
817.420715936211	-0.3411865234375
818.420715933686	-0.339324951171875
819.420715931162	-0.33746337890625
820.420715928637	-0.33563232421875
821.420715926112	-0.333770751953125
822.420715923587	-0.3319091796875
823.420715921063	-0.330047607421875
824.420715918538	-0.328338623046875
825.420715916013	-0.326446533203125
826.420715913488	-0.3245849609375
827.420715910964	-0.32269287109375
828.420715908439	-0.320831298828125
829.420715905914	-0.318939208984375
830.420715903389	-0.31707763671875
831.420715900864	-0.315216064453125
832.42071589834	-0.313323974609375
833.420715895815	-0.31146240234375
834.42071589329	-0.309600830078125
835.420715890765	-0.307708740234375
836.420715888241	-0.30584716796875
837.420715885716	-0.303955078125
838.420715883191	-0.302093505859375
839.420715880666	-0.300201416015625
840.420715878142	-0.298309326171875
841.420715875617	-0.296417236328125
842.420715873092	-0.294525146484375
843.420715870567	-0.29266357421875
844.420715868043	-0.290802001953125
845.420715865518	-0.288909912109375
846.420715862993	-0.28704833984375
847.420715860468	-0.285186767578125
848.420715857944	-0.2833251953125
849.420715855419	-0.281463623046875
850.420715852894	-0.279632568359375
851.420715850369	-0.277801513671875
852.420715847845	-0.27593994140625
853.42071584532	-0.27410888671875
854.420715842795	-0.27227783203125
855.42071584027	-0.270477294921875
856.420715837746	-0.268646240234375
857.420715835221	-0.266845703125
858.420715832696	-0.26507568359375
859.420715830171	-0.2633056640625
860.420715827647	-0.26153564453125
861.420715825122	-0.259796142578125
862.420715822597	-0.258056640625
863.420715820072	-0.256378173828125
864.420715817547	-0.25469970703125
865.420715815023	-0.25299072265625
866.420715812498	-0.251312255859375
867.420715809973	-0.249664306640625
868.420715807448	-0.248016357421875
869.420715804924	-0.24639892578125
870.420715802399	-0.24481201171875
871.420715799874	-0.24322509765625
872.420715797349	-0.241668701171875
873.420715794825	-0.2401123046875
874.4207157923	-0.23858642578125
875.420715789775	-0.237030029296875
876.42071578725	-0.235565185546875
877.420715784726	-0.234039306640625
878.420715782201	-0.232574462890625
879.420715779676	-0.231109619140625
880.420715777151	-0.229705810546875
881.420715774627	-0.228271484375
882.420715772102	-0.2269287109375
883.420715769577	-0.22552490234375
884.420715767052	-0.224151611328125
885.420715764528	-0.2227783203125
886.420715762003	-0.221435546875
887.420715759478	-0.220123291015625
888.420715756953	-0.218780517578125
889.420715754429	-0.21746826171875
890.420715751904	-0.2161865234375
891.420715749379	-0.21490478515625
892.420715746854	-0.213653564453125
893.42071574433	-0.21240234375
894.420715741805	-0.211181640625
895.42071573928	-0.2099609375
896.420715736755	-0.208740234375
897.420715734231	-0.207550048828125
898.420715731706	-0.20635986328125
899.420715729181	-0.205169677734375
900.420715726656	-0.204010009765625
901.420715724131	-0.20281982421875
902.420715721607	-0.201690673828125
903.420715719082	-0.200531005859375
904.420715716557	-0.19940185546875
905.420715714032	-0.198272705078125
906.420715711508	-0.197174072265625
907.420715708983	-0.196044921875
908.420715706458	-0.1949462890625
909.420715703933	-0.19384765625
910.420715701409	-0.1927490234375
911.420715698884	-0.191680908203125
912.420715696359	-0.19061279296875
913.420715693834	-0.189544677734375
914.42071569131	-0.1884765625
915.420715688785	-0.187408447265625
916.42071568626	-0.18634033203125
917.420715683735	-0.185272216796875
918.420715681211	-0.184234619140625
919.420715678686	-0.18316650390625
920.420715676161	-0.18212890625
921.420715673636	-0.181060791015625
922.420715671112	-0.180023193359375
923.420715668587	-0.178985595703125
924.420715666062	-0.177978515625
925.420715663537	-0.176910400390625
926.420715661013	-0.175872802734375
927.420715658488	-0.174835205078125
928.420715655963	-0.173797607421875
929.420715653438	-0.172760009765625
930.420715650914	-0.171722412109375
931.420715648389	-0.170654296875
932.420715645864	-0.16961669921875
933.420715643339	-0.1685791015625
934.420715640814	-0.16754150390625
935.42071563829	-0.16650390625
936.420715635765	-0.16546630859375
937.42071563324	-0.1644287109375
938.420715630715	-0.163360595703125
939.420715628191	-0.162322998046875
940.420715625666	-0.161285400390625
941.420715623141	-0.1602783203125
942.420715620616	-0.159210205078125
943.420715618092	-0.15814208984375
944.420715615567	-0.157073974609375
945.420715613042	-0.156005859375
946.420715610517	-0.154937744140625
947.420715607993	-0.153900146484375
948.420715605468	-0.15283203125
949.420715602943	-0.151763916015625
950.420715600418	-0.15069580078125
951.420715597894	-0.149627685546875
952.420715595369	-0.148590087890625
953.420715592844	-0.147552490234375
954.420715590319	-0.146484375
955.420715587795	-0.14544677734375
956.42071558527	-0.144378662109375
957.420715582745	-0.143341064453125
958.42071558022	-0.14227294921875
959.420715577696	-0.1412353515625
960.420715575171	-0.140167236328125
961.420715572646	-0.13909912109375
962.420715570121	-0.1380615234375
963.420715567597	-0.136993408203125
964.420715565072	-0.135955810546875
965.420715562547	-0.1348876953125
966.420715560022	-0.133819580078125
967.420715557497	-0.132781982421875
968.420715554973	-0.131744384765625
969.420715552448	-0.13067626953125
970.420715549923	-0.129608154296875
971.420715547398	-0.128570556640625
972.420715544874	-0.12750244140625
973.420715542349	-0.12646484375
974.420715539824	-0.125396728515625
975.420715537299	-0.124359130859375
976.420715534775	-0.123291015625
977.42071553225	-0.12225341796875
978.420715529725	-0.1212158203125
979.4207155272	-0.120147705078125
980.420715524676	-0.119110107421875
981.420715522151	-0.1180419921875
982.420715519626	-0.11700439453125
983.420715517101	-0.115966796875
984.420715514577	-0.114898681640625
985.420715512052	-0.11383056640625
986.420715509527	-0.112762451171875
987.420715507002	-0.111724853515625
988.420715504478	-0.11065673828125
989.420715501953	-0.109619140625
990.420715499428	-0.10858154296875
991.420715496903	-0.107513427734375
992.420715494379	-0.106475830078125
993.420715491854	-0.105438232421875
994.420715489329	-0.104400634765625
995.420715486804	-0.103363037109375
996.42071548428	-0.102325439453125
997.420715481755	-0.101287841796875
998.42071547923	-0.100250244140625
999.420715476705	-0.0992431640625
1000.42071547418	-0.09820556640625
1001.42071547166	-0.09716796875
1002.42071546913	-0.096160888671875
1003.42071546661	-0.095123291015625
1004.42071546408	-0.0941162109375
1005.42071546156	-0.093109130859375
1006.42071545903	-0.09210205078125
1007.42071545651	-0.091094970703125
1008.42071545398	-0.090087890625
1009.42071545146	-0.089080810546875
1010.42071544893	-0.08807373046875
1011.42071544641	-0.087066650390625
1012.42071544388	-0.0860595703125
1013.42071544136	-0.085052490234375
1014.42071543883	-0.08404541015625
1015.42071543631	-0.08306884765625
1016.42071543378	-0.082061767578125
1017.42071543126	-0.0810546875
1018.42071542873	-0.080078125
1019.42071542621	-0.079071044921875
1020.42071542369	-0.07806396484375
1021.42071542116	-0.07708740234375
1022.42071541864	-0.076080322265625
1023.42071541611	-0.0750732421875
1024.42071541359	-0.074066162109375
1025.42071541106	-0.07305908203125
1026.42071540854	-0.07208251953125
1027.42071540601	-0.071075439453125
1028.42071540349	-0.070068359375
1029.42071540096	-0.069061279296875
1030.42071539844	-0.06805419921875
1031.42071539591	-0.067047119140625
1032.42071539339	-0.0660400390625
1033.42071539086	-0.06500244140625
1034.42071538834	-0.063995361328125
1035.42071538581	-0.062957763671875
1036.42071538329	-0.06195068359375
1037.42071538076	-0.060943603515625
1038.42071537824	-0.059906005859375
1039.42071537572	-0.058868408203125
1040.42071537319	-0.057830810546875
1041.42071537067	-0.056793212890625
1042.42071536814	-0.055755615234375
1043.42071536562	-0.0546875
1044.42071536309	-0.053619384765625
1045.42071536057	-0.052581787109375
1046.42071535804	-0.051513671875
1047.42071535552	-0.0504150390625
1048.42071535299	-0.049346923828125
1049.42071535047	-0.0482635498046875
1050.42071534794	-0.0471710205078125
1051.42071534542	-0.046087646484375
1052.42071534289	-0.0449798583984375
1053.42071534037	-0.043865966796875
1054.42071533784	-0.0427581787109375
1055.42071533532	-0.0416351318359375
1056.42071533279	-0.0404998779296875
1057.42071533027	-0.0393585205078125
1058.42071532774	-0.038214111328125
1059.42071532522	-0.037060546875
1060.4207153227	-0.035906982421875
1061.42071532017	-0.034735107421875
1062.42071531765	-0.0335540771484375
1063.42071531512	-0.0323638916015625
1064.4207153126	-0.0311767578125
1065.42071531007	-0.0299774169921875
1066.42071530755	-0.028741455078125
1067.42071530502	-0.0275146484375
1068.4207153025	-0.026275634765625
1069.42071529997	-0.025030517578125
1070.42071529745	-0.0237823486328125
1071.42071529492	-0.022509765625
1072.4207152924	-0.02122802734375
1073.42071528987	-0.019940185546875
1074.42071528735	-0.018634033203125
1075.42071528482	-0.01734619140625
1076.4207152823	-0.0160125732421875
1077.42071527977	-0.01466064453125
1078.42071527725	-0.0132965087890625
1079.42071527472	-0.01192626953125
1080.4207152722	-0.0105316162109375
1081.42071526968	-0.0091400146484375
1082.42071526715	-0.007733154296875
1083.42071526463	-0.006304931640625
1084.4207152621	-0.0048553466796875
1085.42071525958	-0.00339660644531251
1086.42071525705	-0.0019195556640625
1087.42071525453	-0.000430297851562497
1088.420715252	0.00106201171875001
1089.42071524948	0.0025909423828125
1090.42071524695	0.004132080078125
1091.42071524443	0.00570068359375001
1092.4207152419	0.0072784423828125
1093.42071523938	0.00887145996093749
1094.42071523685	0.0104949951171875
1095.42071523433	0.012127685546875
1096.4207152318	0.0137908935546875
1097.42071522928	0.0154693603515625
1098.42071522675	0.017169189453125
1099.42071522423	0.0188995361328125
1100.4207152217	0.020623779296875
1101.42071521918	0.0223846435546875
1102.42071521666	0.024169921875
1103.42071521413	0.025994873046875
1104.42071521161	0.02783203125
1105.42071520908	0.0296966552734375
1106.42071520656	0.0315704345703125
1107.42071520403	0.0334869384765625
1108.42071520151	0.0354095458984375
1109.42071519898	0.037353515625
1110.42071519646	0.0393157958984375
1111.42071519393	0.041302490234375
1112.42071519141	0.043328857421875
1113.42071518888	0.0453704833984375
1114.42071518636	0.047430419921875
1115.42071518383	0.049530029296875
1116.42071518131	0.051666259765625
1117.42071517878	0.053802490234375
1118.42071517626	0.05596923828125
1119.42071517373	0.05816650390625
1120.42071517121	0.06036376953125
1121.42071516868	0.062591552734375
1122.42071516616	0.064849853515625
1123.42071516364	0.067108154296875
1124.42071516111	0.06939697265625
1125.42071515859	0.071685791015625
1126.42071515606	0.074005126953125
1127.42071515354	0.076324462890625
1128.42071515101	0.07867431640625
1129.42071514849	0.0810546875
1130.42071514596	0.08343505859375
1131.42071514344	0.0858154296875
1132.42071514091	0.08819580078125
1133.42071513839	0.090576171875
1134.42071513586	0.093017578125
1135.42071513334	0.095428466796875
1136.42071513081	0.097869873046875
1137.42071512829	0.100311279296875
1138.42071512576	0.10272216796875
1139.42071512324	0.10516357421875
1140.42071512071	0.10760498046875
1141.42071511819	0.110076904296875
1142.42071511567	0.112518310546875
1143.42071511314	0.114959716796875
1144.42071511062	0.117401123046875
1145.42071510809	0.11981201171875
1146.42071510557	0.12225341796875
1147.42071510304	0.12469482421875
1148.42071510052	0.1270751953125
1149.42071509799	0.129486083984375
1150.42071509547	0.13189697265625
1151.42071509294	0.13427734375
1152.42071509042	0.13665771484375
1153.42071508789	0.13897705078125
1154.42071508537	0.141357421875
1155.42071508284	0.1436767578125
1156.42071508032	0.146026611328125
1157.42071507779	0.148345947265625
1158.42071507527	0.150665283203125
1159.42071507274	0.1529541015625
1160.42071507022	0.1552734375
1161.42071506769	0.15753173828125
1162.42071506517	0.1597900390625
1163.42071506265	0.16204833984375
1164.42071506012	0.164276123046875
1165.4207150576	0.16650390625
1166.42071505507	0.168731689453125
1167.42071505255	0.1708984375
1168.42071505002	0.173095703125
1169.4207150475	0.175262451171875
1170.42071504497	0.17742919921875
1171.42071504245	0.1795654296875
1172.42071503992	0.181671142578125
1173.4207150374	0.18377685546875
1174.42071503487	0.18585205078125
1175.42071503235	0.18792724609375
1176.42071502982	0.19000244140625
1177.4207150273	0.192047119140625
1178.42071502477	0.194061279296875
1179.42071502225	0.196075439453125
1180.42071501972	0.19805908203125
1181.4207150172	0.200042724609375
1182.42071501467	0.201995849609375
1183.42071501215	0.203948974609375
1184.42071500963	0.20587158203125
1185.4207150071	0.207763671875
1186.42071500458	0.20965576171875
1187.42071500205	0.2115478515625
1188.42071499953	0.213409423828125
1189.420714997	0.2152099609375
1190.42071499448	0.217010498046875
1191.42071499195	0.21881103515625
1192.42071498943	0.2205810546875
1193.4207149869	0.222320556640625
1194.42071498438	0.22406005859375
1195.42071498185	0.225738525390625
1196.42071497933	0.227386474609375
1197.4207149768	0.22900390625
1198.42071497428	0.230621337890625
1199.42071497175	0.232177734375
1200.42071496923	0.23370361328125
1201.4207149667	0.235198974609375
1202.42071496418	0.23663330078125
1203.42071496165	0.238037109375
1204.42071495913	0.2393798828125
1205.42071495661	0.24072265625
1206.42071495408	0.241973876953125
1207.42071495156	0.243194580078125
1208.42071494903	0.244384765625
1209.42071494651	0.245513916015625
1210.42071494398	0.246612548828125
1211.42071494146	0.2476806640625
1212.42071493893	0.24871826171875
1213.42071493641	0.249725341796875
1214.42071493388	0.250701904296875
1215.42071493136	0.251617431640625
1216.42071492883	0.252532958984375
1217.42071492631	0.253387451171875
1218.42071492378	0.2542724609375
1219.42071492126	0.25506591796875
1220.42071491873	0.255889892578125
1221.42071491621	0.256683349609375
1222.42071491368	0.257476806640625
1223.42071491116	0.258209228515625
1224.42071490863	0.25897216796875
1225.42071490611	0.259674072265625
1226.42071490359	0.260406494140625
1227.42071490106	0.2611083984375
1228.42071489854	0.261810302734375
1229.42071489601	0.262481689453125
1230.42071489349	0.263153076171875
1231.42071489096	0.263824462890625
1232.42071488844	0.26446533203125
1233.42071488591	0.265106201171875
1234.42071488339	0.2657470703125
1235.42071488086	0.266357421875
1236.42071487834	0.266937255859375
1237.42071487581	0.267547607421875
1238.42071487329	0.268157958984375
1239.42071487076	0.26873779296875
1240.42071486824	0.269317626953125
1241.42071486571	0.2698974609375
1242.42071486319	0.270477294921875
1243.42071486066	0.27105712890625
1244.42071485814	0.2716064453125
1245.42071485562	0.27215576171875
1246.42071485309	0.272705078125
1247.42071485057	0.27325439453125
1248.42071484804	0.273773193359375
1249.42071484552	0.2742919921875
1250.42071484299	0.27484130859375
1251.42071484047	0.275360107421875
1252.42071483794	0.275909423828125
1253.42071483542	0.276397705078125
1254.42071483289	0.276947021484375
1255.42071483037	0.2774658203125
1256.42071482784	0.2779541015625
1257.42071482532	0.2784423828125
1258.42071482279	0.278900146484375
1259.42071482027	0.279388427734375
1260.42071481774	0.27984619140625
1261.42071481522	0.280303955078125
1262.42071481269	0.28076171875
1263.42071481017	0.28125
1264.42071480764	0.281707763671875
1265.42071480512	0.28216552734375
1266.4207148026	0.282623291015625
1267.42071480007	0.2830810546875
1268.42071479755	0.28350830078125
1269.42071479502	0.283966064453125
1270.4207147925	0.284393310546875
1271.42071478997	0.284820556640625
1272.42071478745	0.285247802734375
1273.42071478492	0.28570556640625
1274.4207147824	0.2861328125
1275.42071477987	0.28656005859375
1276.42071477735	0.287017822265625
1277.42071477482	0.287445068359375
1278.4207147723	0.287872314453125
1279.42071476977	0.288299560546875
1280.42071476725	0.288726806640625
1281.42071476472	0.289154052734375
1282.4207147622	0.289581298828125
1283.42071475967	0.290008544921875
1284.42071475715	0.2904052734375
1285.42071475462	0.290802001953125
1286.4207147521	0.291229248046875
1287.42071474958	0.291656494140625
1288.42071474705	0.29205322265625
1289.42071474453	0.29248046875
1290.420714742	0.292877197265625
1291.42071473948	0.29327392578125
1292.42071473695	0.293670654296875
1293.42071473443	0.2940673828125
1294.4207147319	0.29449462890625
1295.42071472938	0.294891357421875
1296.42071472685	0.2952880859375
1297.42071472433	0.29571533203125
1298.4207147218	0.296112060546875
1299.42071471928	0.2965087890625
1300.42071471675	0.296905517578125
1301.42071471423	0.29730224609375
1302.4207147117	0.297698974609375
1303.42071470918	0.298095703125
1304.42071470665	0.2984619140625
1305.42071470413	0.298858642578125
1306.4207147016	0.29925537109375
1307.42071469908	0.299652099609375
1308.42071469656	0.300048828125
1309.42071469403	0.300445556640625
1310.42071469151	0.30084228515625
1311.42071468898	0.301239013671875
1312.42071468646	0.3016357421875
1313.42071468393	0.302032470703125
1314.42071468141	0.30242919921875
1315.42071467888	0.302825927734375
1316.42071467636	0.30322265625
1317.42071467383	0.303619384765625
1318.42071467131	0.30401611328125
1319.42071466878	0.30438232421875
1320.42071466626	0.304779052734375
1321.42071466373	0.30517578125
1322.42071466121	0.305572509765625
1323.42071465868	0.30596923828125
1324.42071465616	0.30633544921875
1325.42071465363	0.30670166015625
1326.42071465111	0.307098388671875
1327.42071464858	0.3074951171875
1328.42071464606	0.307891845703125
1329.42071464354	0.30828857421875
1330.42071464101	0.308685302734375
1331.42071463849	0.30908203125
1332.42071463596	0.30950927734375
1333.42071463344	0.309906005859375
1334.42071463091	0.310302734375
1335.42071462839	0.310699462890625
1336.42071462586	0.31109619140625
1337.42071462334	0.3115234375
1338.42071462081	0.311920166015625
1339.42071461829	0.312347412109375
1340.42071461576	0.312744140625
1341.42071461324	0.31317138671875
1342.42071461071	0.3135986328125
1343.42071460819	0.313995361328125
1344.42071460566	0.314422607421875
1345.42071460314	0.3148193359375
1346.42071460061	0.31524658203125
1347.42071459809	0.315673828125
1348.42071459557	0.316070556640625
1349.42071459304	0.316497802734375
1350.42071459052	0.31689453125
1351.42071458799	0.31732177734375
1352.42071458547	0.3177490234375
1353.42071458294	0.318145751953125
1354.42071458042	0.318572998046875
1355.42071457789	0.319000244140625
1356.42071457537	0.319427490234375
1357.42071457284	0.31982421875
1358.42071457032	0.32025146484375
1359.42071456779	0.3206787109375
1360.42071456527	0.32110595703125
1361.42071456274	0.321502685546875
1362.42071456022	0.321929931640625
1363.42071455769	0.3223876953125
1364.42071455517	0.32281494140625
1365.42071455264	0.323211669921875
1366.42071455012	0.323638916015625
1367.42071454759	0.3240966796875
1368.42071454507	0.32452392578125
1369.42071454255	0.324920654296875
1370.42071454002	0.32537841796875
1371.4207145375	0.3258056640625
1372.42071453497	0.32623291015625
1373.42071453245	0.326690673828125
1374.42071452992	0.327117919921875
1375.4207145274	0.327545166015625
1376.42071452487	0.327972412109375
1377.42071452235	0.328399658203125
1378.42071451982	0.328826904296875
1379.4207145173	0.329254150390625
1380.42071451477	0.3297119140625
1381.42071451225	0.33013916015625
1382.42071450972	0.330535888671875
1383.4207145072	0.33099365234375
1384.42071450467	0.3314208984375
1385.42071450215	0.33184814453125
1386.42071449962	0.332275390625
1387.4207144971	0.33270263671875
1388.42071449457	0.3331298828125
1389.42071449205	0.333587646484375
1390.42071448953	0.334014892578125
1391.420714487	0.334442138671875
1392.42071448448	0.334869384765625
1393.42071448195	0.335296630859375
1394.42071447943	0.335723876953125
1395.4207144769	0.33612060546875
1396.42071447438	0.3365478515625
1397.42071447185	0.336944580078125
1398.42071446933	0.337371826171875
1399.4207144668	0.337799072265625
1400.42071446428	0.33819580078125
1401.42071446175	0.338623046875
1402.42071445923	0.33905029296875
1403.4207144567	0.3394775390625
1404.42071445418	0.339874267578125
1405.42071445165	0.340301513671875
1406.42071444913	0.3406982421875
1407.4207144466	0.34112548828125
1408.42071444408	0.341522216796875
1409.42071444155	0.3419189453125
1410.42071443903	0.342315673828125
1411.42071443651	0.342742919921875
1412.42071443398	0.343109130859375
1413.42071443146	0.343536376953125
1414.42071442893	0.343902587890625
1415.42071442641	0.34429931640625
1416.42071442388	0.344696044921875
1417.42071442136	0.345062255859375
1418.42071441883	0.345428466796875
1419.42071441631	0.3458251953125
1420.42071441378	0.34619140625
1421.42071441126	0.3465576171875
1422.42071440873	0.346923828125
1423.42071440621	0.3472900390625
1424.42071440368	0.34765625
1425.42071440116	0.3480224609375
1426.42071439863	0.348388671875
1427.42071439611	0.348724365234375
1428.42071439358	0.349090576171875
1429.42071439106	0.34942626953125
1430.42071438853	0.34979248046875
1431.42071438601	0.35009765625
1432.42071438349	0.350433349609375
1433.42071438096	0.350799560546875
1434.42071437844	0.351104736328125
1435.42071437591	0.351470947265625
1436.42071437339	0.351776123046875
1437.42071437086	0.352081298828125
1438.42071436834	0.3524169921875
1439.42071436581	0.35272216796875
1440.42071436329	0.35302734375
1441.42071436076	0.35333251953125
1442.42071435824	0.3536376953125
1443.42071435571	0.35394287109375
1444.42071435319	0.354248046875
1445.42071435066	0.35455322265625
1446.42071434814	0.3548583984375
1447.42071434561	0.355133056640625
1448.42071434309	0.355438232421875
1449.42071434056	0.355743408203125
1450.42071433804	0.35601806640625
1451.42071433552	0.356292724609375
1452.42071433299	0.356597900390625
1453.42071433047	0.35687255859375
1454.42071432794	0.357147216796875
1455.42071432542	0.357421875
1456.42071432289	0.357696533203125
1457.42071432037	0.35797119140625
1458.42071431784	0.358245849609375
1459.42071431532	0.358489990234375
1460.42071431279	0.358734130859375
1461.42071431027	0.3590087890625
1462.42071430774	0.3592529296875
1463.42071430522	0.3594970703125
1464.42071430269	0.359771728515625
1465.42071430017	0.360015869140625
1466.42071429764	0.36029052734375
1467.42071429512	0.36053466796875
1468.42071429259	0.36077880859375
1469.42071429007	0.36102294921875
1470.42071428754	0.36126708984375
1471.42071428502	0.361480712890625
1472.4207142825	0.3616943359375
1473.42071427997	0.3619384765625
1474.42071427745	0.3621826171875
1475.42071427492	0.362396240234375
1476.4207142724	0.362640380859375
1477.42071426987	0.36285400390625
1478.42071426735	0.363067626953125
1479.42071426482	0.363311767578125
1480.4207142623	0.363494873046875
1481.42071425977	0.36370849609375
1482.42071425725	0.363922119140625
1483.42071425472	0.3641357421875
1484.4207142522	0.364288330078125
1485.42071424967	0.364501953125
1486.42071424715	0.364715576171875
1487.42071424462	0.364898681640625
1488.4207142421	0.3651123046875
1489.42071423957	0.36529541015625
1490.42071423705	0.365509033203125
1491.42071423452	0.365692138671875
1492.420714232	0.365875244140625
1493.42071422948	0.3660888671875
1494.42071422695	0.36627197265625
1495.42071422443	0.366455078125
1496.4207142219	0.36663818359375
1497.42071421938	0.3668212890625
1498.42071421685	0.36700439453125
1499.42071421433	0.3671875
1500.4207142118	0.36737060546875
1501.42071420928	0.3675537109375
1502.42071420675	0.367706298828125
1503.42071420423	0.367889404296875
1504.4207142017	0.368072509765625
1505.42071419918	0.36822509765625
1506.42071419665	0.368408203125
1507.42071419413	0.36859130859375
1508.4207141916	0.368743896484375
1509.42071418908	0.368927001953125
1510.42071418655	0.36907958984375
1511.42071418403	0.3692626953125
1512.4207141815	0.369415283203125
1513.42071417898	0.36956787109375
1514.42071417646	0.3697509765625
1515.42071417393	0.369903564453125
1516.42071417141	0.37005615234375
1517.42071416888	0.3702392578125
1518.42071416636	0.370391845703125
1519.42071416383	0.370513916015625
1520.42071416131	0.370697021484375
1521.42071415878	0.370849609375
1522.42071415626	0.371002197265625
1523.42071415373	0.37115478515625
1524.42071415121	0.371307373046875
1525.42071414868	0.3714599609375
1526.42071414616	0.371612548828125
1527.42071414363	0.371734619140625
1528.42071414111	0.371856689453125
1529.42071413858	0.37200927734375
1530.42071413606	0.372161865234375
1531.42071413353	0.372314453125
1532.42071413101	0.372467041015625
1533.42071412848	0.372589111328125
1534.42071412596	0.372711181640625
1535.42071412344	0.37286376953125
1536.42071412091	0.37298583984375
1537.42071411839	0.37310791015625
1538.42071411586	0.373260498046875
1539.42071411334	0.3734130859375
1540.42071411081	0.37353515625
1541.42071410829	0.373687744140625
1542.42071410576	0.373809814453125
1543.42071410324	0.37396240234375
1544.42071410071	0.37408447265625
1545.42071409819	0.37420654296875
1546.42071409566	0.37432861328125
1547.42071409314	0.37445068359375
1548.42071409061	0.374603271484375
1549.42071408809	0.374725341796875
1550.42071408556	0.374847412109375
1551.42071408304	0.374969482421875
1552.42071408051	0.375091552734375
1553.42071407799	0.375213623046875
1554.42071407547	0.375335693359375
1555.42071407294	0.37542724609375
1556.42071407042	0.375579833984375
1557.42071406789	0.375701904296875
1558.42071406537	0.375823974609375
1559.42071406284	0.375946044921875
1560.42071406032	0.376068115234375
1561.42071405779	0.376190185546875
1562.42071405527	0.376312255859375
1563.42071405274	0.37640380859375
1564.42071405022	0.37652587890625
1565.42071404769	0.37664794921875
1566.42071404517	0.37677001953125
1567.42071404264	0.376861572265625
1568.42071404012	0.376983642578125
1569.42071403759	0.377105712890625
1570.42071403507	0.377197265625
1571.42071403254	0.3773193359375
1572.42071403002	0.377410888671875
1573.42071402749	0.377532958984375
1574.42071402497	0.377655029296875
1575.42071402245	0.37774658203125
1576.42071401992	0.37786865234375
1577.4207140174	0.37799072265625
1578.42071401487	0.378082275390625
1579.42071401235	0.378204345703125
1580.42071400982	0.3782958984375
1581.4207140073	0.37841796875
1582.42071400477	0.378509521484375
1583.42071400225	0.378631591796875
1584.42071399972	0.37872314453125
1585.4207139972	0.378814697265625
1586.42071399467	0.378936767578125
1587.42071399215	0.3790283203125
1588.42071398962	0.379119873046875
1589.4207139871	0.37921142578125
1590.42071398457	0.37933349609375
1591.42071398205	0.379425048828125
1592.42071397952	0.379547119140625
1593.420713977	0.379638671875
1594.42071397447	0.3797607421875
1595.42071397195	0.379852294921875
1596.42071396943	0.37994384765625
1597.4207139669	0.38006591796875
1598.42071396438	0.380157470703125
1599.42071396185	0.3802490234375
1600.42071395933	0.38037109375
1601.4207139568	0.380462646484375
1602.42071395428	0.38055419921875
1603.42071395175	0.380645751953125
1604.42071394923	0.380767822265625
1605.4207139467	0.380859375
1606.42071394418	0.380950927734375
1607.42071394165	0.38104248046875
1608.42071393913	0.381134033203125
1609.4207139366	0.3812255859375
1610.42071393408	0.38128662109375
1611.42071393155	0.381378173828125
1612.42071392903	0.3814697265625
1613.4207139265	0.381561279296875
1614.42071392398	0.38165283203125
1615.42071392145	0.381744384765625
1616.42071391893	0.381805419921875
1617.42071391641	0.38189697265625
1618.42071391388	0.381988525390625
1619.42071391136	0.382080078125
1620.42071390883	0.382171630859375
1621.42071390631	0.382293701171875
1622.42071390378	0.382354736328125
1623.42071390126	0.3824462890625
1624.42071389873	0.382537841796875
1625.42071389621	0.38262939453125
1626.42071389368	0.382720947265625
1627.42071389116	0.382781982421875
1628.42071388863	0.382904052734375
1629.42071388611	0.38299560546875
1630.42071388358	0.383056640625
1631.42071388106	0.383148193359375
1632.42071387853	0.38323974609375
1633.42071387601	0.383331298828125
1634.42071387348	0.3834228515625
1635.42071387096	0.383514404296875
1636.42071386843	0.38360595703125
1637.42071386591	0.3836669921875
1638.42071386339	0.383758544921875
1639.42071386086	0.38385009765625
1640.42071385834	0.3839111328125
1641.42071385581	0.384002685546875
1642.42071385329	0.384063720703125
1643.42071385076	0.3841552734375
1644.42071384824	0.384246826171875
1645.42071384571	0.38433837890625
1646.42071384319	0.384429931640625
1647.42071384066	0.384521484375
1648.42071383814	0.38458251953125
1649.42071383561	0.384674072265625
1650.42071383309	0.384765625
1651.42071383056	0.38482666015625
1652.42071382804	0.3848876953125
1653.42071382551	0.384979248046875
1654.42071382299	0.385040283203125
1655.42071382046	0.3851318359375
1656.42071381794	0.385223388671875
1657.42071381542	0.38531494140625
1658.42071381289	0.3853759765625
1659.42071381037	0.385467529296875
1660.42071380784	0.385528564453125
1661.42071380532	0.3856201171875
1662.42071380279	0.38568115234375
1663.42071380027	0.385772705078125
1664.42071379774	0.385833740234375
1665.42071379522	0.38592529296875
1666.42071379269	0.385986328125
