Time (s)	WE(1).Potential (V)	External(1).External 2 (V)
2656.82596129216	0.089813232421875	4.06341552734375
2657.82596128963	0.082794189453125	3.966064453125
2658.82596128711	0.07763671875	4.10247802734375
2659.82596128458	0.073577880859375	4.04327392578125
2660.82596128206	0.07025146484375	4.0240478515625
2661.82596127954	0.067474365234375	3.98468017578125
2662.82596127701	0.065093994140625	3.94683837890625
2663.82596127449	0.06298828125	4.00421142578125
2664.82596127196	0.0611572265625	4.122314453125
2665.82596126944	0.05950927734375	4.0240478515625
2666.82596126691	0.05804443359375	4.16046142578125
2667.82596126439	0.0567626953125	4.02496337890625
2668.82596126186	0.055572509765625	4.04388427734375
2669.82596125934	0.05450439453125	4.0252685546875
2670.82596125681	0.053466796875	3.9849853515625
2671.82596125429	0.052581787109375	4.12200927734375
2672.82596125176	0.051727294921875	4.10247802734375
2673.82596124924	0.050933837890625	3.96575927734375
2674.82596124671	0.05023193359375	4.06341552734375
2675.82596124419	0.049560546875	3.98529052734375
2676.82596124166	0.0488983154296875	3.9654541015625
2677.82596123914	0.0483306884765625	4.04388427734375
2678.82596123661	0.047784423828125	3.98590087890625
2679.82596123409	0.04725341796875	3.8873291015625
2680.82596123157	0.046771240234375	4.00482177734375
2681.82596122904	0.0463287353515625	3.96575927734375
2682.82596122652	0.0459014892578125	4.0631103515625
2683.82596122399	0.0454986572265625	3.9654541015625
2684.82596122147	0.0451202392578125	3.98529052734375
2685.82596121894	0.0447723388671875	4.10308837890625
2686.82596121642	0.0444244384765625	4.0826416015625
2687.82596121389	0.04407958984375	4.0631103515625
2688.82596121137	0.0437835693359375	4.083251953125
2689.82596120884	0.0434722900390625	4.0435791015625
2690.82596120632	0.0432037353515625	3.86810302734375
2691.82596120379	0.04293212890625	3.966064453125
2692.82596120127	0.0426544189453125	4.04327392578125
2693.82596119874	0.0424285888671875	4.0631103515625
2694.82596119622	0.0421905517578125	3.966064453125
2695.82596119369	0.0419647216796875	4.08294677734375
2696.82596119117	0.0417266845703125	4.024658203125
2697.82596118864	0.0415313720703125	4.04388427734375
2698.82596118612	0.04130859375	4.02435302734375
2699.82596118359	0.0411285400390625	4.10308837890625
2700.82596118107	0.0409393310546875	4.08294677734375
2701.82596117855	0.040740966796875	4.04327392578125
2702.82596117602	0.04058837890625	3.985595703125
2703.8259611735	0.0404266357421875	4.04449462890625
2704.82596117097	0.040252685546875	4.063720703125
2705.82596116845	0.0401092529296875	4.16229248046875
2706.82596116592	0.0399627685546875	4.122314453125
2707.8259611634	0.0398223876953125	4.02435302734375
2708.82596116087	0.0396942138671875	4.00482177734375
2709.82596115835	0.0395751953125	4.044189453125
2710.82596115582	0.03946533203125	3.985595703125
2711.8259611533	0.0393280029296875	3.94622802734375
2712.82596115077	0.0392181396484375	3.98529052734375
2713.82596114825	0.0391143798828125	4.06280517578125
2714.82596114572	0.039013671875	4.10247802734375
2715.8259611432	0.038922119140625	3.946533203125
2716.82596114067	0.0388458251953125	4.0631103515625
2717.82596113815	0.0387359619140625	3.985595703125
2718.82596113562	0.038653564453125	4.04388427734375
2719.8259611331	0.0385772705078125	4.0240478515625
2720.82596113057	0.0384979248046875	4.02435302734375
2721.82596112805	0.0384124755859375	3.9471435546875
2722.82596112553	0.0383331298828125	3.96514892578125
2723.825961123	0.0382659912109375	3.946533203125
2724.82596112048	0.0382049560546875	4.0826416015625
2725.82596111795	0.0381439208984375	3.92608642578125
2726.82596111543	0.03807373046875	3.96575927734375
2727.8259611129	0.0380035400390625	4.0240478515625
2728.82596111038	0.037933349609375	4.04296875
2729.82596110785	0.0378662109375	3.98529052734375
2730.82596110533	0.03782958984375	4.16107177734375
2731.8259611028	0.0377685546875	4.08355712890625
2732.82596110028	0.03770751953125	4.0631103515625
2733.82596109775	0.0376739501953125	3.96636962890625
2734.82596109523	0.0376068115234375	4.06280517578125
2735.8259610927	0.037554931640625	4.02435302734375
2736.82596109018	0.0375030517578125	3.98529052734375
2737.82596108765	0.0374847412109375	4.16107177734375
2738.82596108513	0.037451171875	3.966064453125
2739.8259610826	0.037420654296875	4.0631103515625
2740.82596108008	0.037371826171875	4.0240478515625
2741.82596107755	0.03734130859375	4.04388427734375
2742.82596107503	0.037310791015625	4.0045166015625
2743.82596107251	0.0373046875	3.985595703125
2744.82596106998	0.0372772216796875	4.02435302734375
2745.82596106746	0.0372528076171875	4.0631103515625
2746.82596106493	0.037213134765625	4.102783203125
2747.82596106241	0.0372100830078125	3.985595703125
2748.82596105988	0.037188720703125	3.9068603515625
2749.82596105736	0.03717041015625	4.0826416015625
2750.82596105483	0.0371612548828125	3.96636962890625
2751.82596105231	0.0371307373046875	3.985595703125
2752.82596104978	0.03712158203125	4.04388427734375
2753.82596104726	0.037127685546875	4.0631103515625
2754.82596104473	0.037115478515625	3.966064453125
2755.82596104221	0.037115478515625	3.98590087890625
2756.82596103968	0.037109375	4.0240478515625
2757.82596103716	0.037103271484375	3.9263916015625
2758.82596103463	0.0371002197265625	4.10308837890625
2759.82596103211	0.03709716796875	3.98590087890625
2760.82596102958	0.0370941162109375	4.02435302734375
2761.82596102706	0.037091064453125	4.04449462890625
2762.82596102453	0.0370880126953125	3.98529052734375
2763.82596102201	0.037091064453125	3.9666748046875
2764.82596101949	0.037091064453125	4.0826416015625
2765.82596101696	0.0370880126953125	4.04388427734375
2766.82596101444	0.037091064453125	4.024658203125
2767.82596101191	0.0370758056640625	4.06280517578125
2768.82596100939	0.037078857421875	3.9849853515625
2769.82596100686	0.0370819091796875	3.9849853515625
2770.82596100434	0.0370880126953125	4.06280517578125
2771.82596100181	0.0370941162109375	3.86749267578125
2772.82596099929	0.03712158203125	3.946533203125
2773.82596099676	0.0371124267578125	3.9654541015625
2774.82596099424	0.03712158203125	4.08294677734375
2775.82596099171	0.0371307373046875	4.0631103515625
2776.82596098919	0.037139892578125	3.9654541015625
2777.82596098666	0.037152099609375	4.06280517578125
2778.82596098414	0.037164306640625	3.985595703125
2779.82596098161	0.0371734619140625	3.9849853515625
2780.82596097909	0.037188720703125	4.005126953125
2781.82596097656	0.0372039794921875	4.10308837890625
2782.82596097404	0.0372161865234375	3.9654541015625
2783.82596097152	0.0372344970703125	4.102783203125
2784.82596096899	0.037249755859375	3.985595703125
2785.82596096647	0.0372650146484375	4.00482177734375
2786.82596096394	0.03729248046875	4.08233642578125
2787.82596096142	0.0373199462890625	3.98590087890625
2788.82596095889	0.0373382568359375	4.12261962890625
2789.82596095637	0.037347412109375	3.946533203125
2790.82596095384	0.03739013671875	3.98529052734375
2791.82596095132	0.03740234375	3.8873291015625
2792.82596094879	0.0374237060546875	4.005126953125
2793.82596094627	0.03746337890625	3.96575927734375
2794.82596094374	0.037493896484375	4.04388427734375
2795.82596094122	0.0375	4.02435302734375
2796.82596093869	0.037542724609375	3.92669677734375
2797.82596093617	0.0375457763671875	3.966064453125
2798.82596093364	0.0375640869140625	4.0631103515625
2799.82596093112	0.03758544921875	4.00482177734375
2800.82596092859	0.03760986328125	4.1021728515625
2801.82596092607	0.03765869140625	3.92669677734375
2802.82596092354	0.03768310546875	3.966064453125
2803.82596092102	0.03770751953125	3.94683837890625
2804.8259609185	0.037738037109375	4.08294677734375
2805.82596091597	0.037762451171875	3.96636962890625
2806.82596091345	0.03779296875	3.96575927734375
2807.82596091092	0.03780517578125	3.96453857421875
2808.8259609084	0.037835693359375	4.00482177734375
2809.82596090587	0.0378662109375	4.0435791015625
2810.82596090335	0.0378936767578125	3.98529052734375
2811.82596090082	0.0379241943359375	4.02374267578125
2812.8259608983	0.03797607421875	3.9471435546875
2813.82596089577	0.0380096435546875	3.84918212890625
2814.82596089325	0.038043212890625	3.887939453125
2815.82596089072	0.0380584716796875	3.9263916015625
2816.8259608882	0.0380950927734375	4.0631103515625
2817.82596088567	0.038128662109375	4.10369873046875
2818.82596088315	0.0381622314453125	4.044189453125
2819.82596088062	0.03819580078125	3.9068603515625
2820.8259608781	0.0382354736328125	3.92730712890625
2821.82596087557	0.0382781982421875	4.0631103515625
2822.82596087305	0.038323974609375	4.14215087890625
2823.82596087052	0.038360595703125	4.005126953125
2824.825960868	0.0383819580078125	4.06280517578125
2825.82596086548	0.0384368896484375	3.92669677734375
2826.82596086295	0.0384765625	4.06341552734375
2827.82596086043	0.0384979248046875	4.083251953125
2828.8259608579	0.03853759765625	3.985595703125
2829.82596085538	0.038580322265625	3.9849853515625
2830.82596085285	0.038623046875	4.1033935546875
2831.82596085033	0.0386627197265625	3.927001953125
2832.8259608478	0.0386993408203125	4.06280517578125
2833.82596084528	0.0387420654296875	3.966064453125
2834.82596084275	0.0387847900390625	3.966064453125
2835.82596084023	0.038848876953125	3.98529052734375
