Time (s)	WE(1).Potential (V)	External(1).External 2 (V)
2.38174699398667	1.54998779296875	4.33685302734375
3.38174699146191	1.55670166015625	4.278564453125
4.38174698893715	1.56402587890625	4.23980712890625
5.3817469864124	1.571044921875	4.33685302734375
6.38174698388764	1.57470703125	4.31732177734375
7.38174698136288	1.58416748046875	4.25933837890625
8.38174697883812	1.59088134765625	4.33624267578125
9.38174697631337	1.5972900390625	4.35577392578125
10.3817469737886	1.6046142578125	4.39422607421875
11.3817469712639	1.6021728515625	4.278564453125
12.3817469687391	1.6015625	4.3170166015625
13.3817469662143	1.6046142578125	4.31671142578125
14.3817469636896	1.59820556640625	4.18060302734375
15.3817469611648	1.59332275390625	4.2779541015625
16.3817469586401	1.59332275390625	4.2596435546875
17.3817469561153	1.5966796875	4.45281982421875
18.3817469535906	1.60400390625	4.39422607421875
19.3817469510658	1.60491943359375	4.31671142578125
20.381746948541	1.6046142578125	4.298095703125
21.3817469460163	1.6046142578125	4.3743896484375
22.3817469434915	1.6033935546875	4.2974853515625
23.3817469409668	1.605224609375	4.29779052734375
24.381746938442	1.61041259765625	4.25933837890625
25.3817469359172	1.611328125	4.31640625
26.3817469333925	1.611328125	4.37469482421875
27.3817469308677	1.61224365234375	4.3756103515625
28.381746928343	1.14776611328125	4.35577392578125
29.3817469258182	0.899658203125	4.29840087890625
30.3817469232935	0.9027099609375	4.4140625
31.3817469207687	0.95733642578125	4.27886962890625
32.3817469182439	1.0150146484375	4.298095703125
33.3817469157192	1.07330322265625	4.29779052734375
34.3817469131944	1.1279296875	4.41436767578125
35.3817469106697	1.17279052734375	4.41436767578125
36.3817469081449	1.22283935546875	4.39422607421875
37.3817469056202	1.25457763671875	4.296875
38.3817469030954	1.28570556640625	4.375
39.3817469005706	1.30828857421875	4.4525146484375
40.3817468980459	1.3299560546875	4.31671142578125
41.3817468955211	1.35162353515625	4.31671142578125
42.3817468929964	1.36993408203125	4.259033203125
43.3817468904716	1.38458251953125	4.180908203125
44.3817468879469	1.397705078125	4.239501953125
45.3817468854221	1.40960693359375	4.3560791015625
46.3817468828973	1.41845703125	4.31732177734375
47.3817468803726	1.422119140625	4.4342041015625
48.3817468778478	1.42669677734375	4.2779541015625
49.3817468753231	1.43157958984375	4.35546875
50.3817468727983	1.436767578125	4.2974853515625
51.3817468702736	1.4373779296875	4.3548583984375
52.3817468677488	1.43829345703125	4.3170166015625
53.381746865224	1.4422607421875	4.25933837890625
54.3817468626993	1.44073486328125	4.35577392578125
55.3817468601745	1.43646240234375	4.31549072265625
56.3817468576498	1.42425537109375	4.2974853515625
57.381746855125	1.42181396484375	4.37469482421875
58.3817468526003	1.41815185546875	4.2584228515625
59.3817468500755	1.41510009765625	4.21966552734375
60.3817468475507	1.41876220703125	4.43328857421875
61.381746845026	1.41204833984375	4.29718017578125
62.3817468425012	1.41571044921875	4.27886962890625
63.3817468399765	1.41632080078125	4.2779541015625
64.3817468374517	1.41082763671875	4.180908203125
65.381746834927	1.96868896484375	4.2388916015625
66.3817468324022	2.09014892578125	4.25872802734375
67.3817468298774	2.06024169921875	4.35577392578125
68.3817468273527	1.66259765625	0.40777587890625
69.3817468248279	1.44317626953125	0.3297119140625
70.3817468223032	1.3775634765625	0.34954833984375
71.3817468197784	1.33209228515625	0.27081298828125
72.3817468172537	1.1767578125	0.349456787109375
73.3817468147289	1.03240966796875	0.368865966796875
74.3817468122041	0.92864990234375	0.3095703125
75.3817468096794	0.84136962890625	2.04010009765625
76.3817468071546	0.8319091796875	4.39422607421875
77.3817468046299	0.89752197265625	4.2974853515625
78.3817468021051	0.97625732421875	4.35516357421875
79.3817467995804	1.0491943359375	4.27825927734375
80.3817467970556	1.114501953125	4.33563232421875
81.3817467945308	1.1492919921875	4.3365478515625
82.3817467920061	1.2115478515625	4.23980712890625
83.3817467894813	1.25213623046875	4.33563232421875
84.3817467869566	1.275634765625	4.2974853515625
85.3817467844318	1.30279541015625	4.29840087890625
86.3817467819071	1.32965087890625	4.12139892578125
87.3817467793823	1.33697509765625	4.21844482421875
88.3817467768575	1.3519287109375	4.122314453125
89.3817467743328	1.3818359375	4.2596435546875
90.381746771808	0.9173583984375	4.31640625
91.3817467692833	1.4727783203125	4.29718017578125
92.3817467667585	1.46820068359375	4.27825927734375
93.3817467642338	1.46728515625	4.3170166015625
94.381746761709	1.47491455078125	4.278564453125
95.3817467591842	1.4825439453125	4.35577392578125
96.3817467566595	1.49810791015625	4.3359375
97.3817467541347	1.57135009765625	4.29779052734375
98.38174675161	1.81915283203125	4.2779541015625
99.3817467490852	1.7138671875	4.23919677734375
100.38174674656	1.24908447265625	4.29779052734375
101.381746744036	1.16851806640625	4.2193603515625
102.381746741511	1.64520263671875	4.259033203125
103.381746738986	2.115478515625	4.23919677734375
104.381746736461	2.2772216796875	4.25933837890625
105.381746733937	2.1356201171875	4.27825927734375
106.381746731412	1.3677978515625	4.31671142578125
107.381746728887	1.01776123046875	4.3359375
108.381746726362	1.517333984375	4.31732177734375
109.381746723838	1.69281005859375	4.16046142578125
110.381746721313	2.33856201171875	4.2193603515625
111.381746718788	1.24786376953125	4.21966552734375
112.381746716263	1.12274169921875	4.00482177734375
113.381746713739	1.5594482421875	4.33685302734375
114.381746711214	1.66351318359375	4.259033203125
115.381746708689	2.17437744140625	4.21966552734375
116.381746706164	2.46612548828125	4.21966552734375
117.38174670364	1.357421875	4.10247802734375
118.381746701115	3.40423583984375	4.10186767578125
119.38174669859	0.88287353515625	4.25933837890625
120.381746696065	0.794677734375	4.18060302734375
121.381746693541	1.4501953125	3.8677978515625
122.381746691016	0.799560546875	4.06341552734375
123.381746688491	2.701416015625	3.80950927734375
124.381746685966	2.18048095703125	3.78997802734375
125.381746683442	2.53692626953125	3.96636962890625
126.381746680917	8.138427734375	3.98406982421875
127.381746678392	2.30133056640625	3.88702392578125
128.381746675867	2.1600341796875	3.82843017578125
129.381746673342	2.0782470703125	3.88763427734375
130.381746670818	10	3.8458251953125
131.381746668293	9.13543701171875	3.905029296875
132.381746665768	6.7279052734375	4.0618896484375
133.381746663243	5.53375244140625	4.06219482421875
134.381746660719	4.7601318359375	4.04327392578125
135.381746658194	4.2047119140625	3.96514892578125
136.381746655669	3.78692626953125	3.88671875
137.381746653144	3.45703125	3.86749267578125
138.38174665062	3.189697265625	4.00390625
139.381746648095	2.96722412109375	4.02374267578125
140.38174664557	2.78289794921875	4.0240478515625
141.381746643045	2.6287841796875	3.9068603515625
142.381746640521	2.4981689453125	3.9849853515625
143.381746637996	2.3870849609375	3.966064453125
144.381746635471	2.2943115234375	3.94561767578125
145.381746632946	2.21160888671875	3.98468017578125
146.381746630422	2.14630126953125	3.9263916015625
147.381746627897	2.120361328125	3.92578125
148.381746625372	2.02850341796875	3.84857177734375
149.381746622847	1.97265625	3.80889892578125
150.381746620323	1.92779541015625	4.02435302734375
151.381746617798	1.88140869140625	3.90655517578125
152.381746615273	1.8377685546875	3.90716552734375
153.381746612748	1.80999755859375	3.946533203125
154.381746610224	1.7755126953125	3.86749267578125
155.381746607699	1.74896240234375	4.0045166015625
156.381746605174	1.72607421875	3.88702392578125
157.381746602649	1.70562744140625	3.8287353515625
158.381746600125	1.6888427734375	4.0240478515625
159.3817465976	1.66748046875	3.86810302734375
160.381746595075	1.65069580078125	4.083251953125
161.38174659255	1.63818359375	4.04327392578125
162.381746590026	1.62750244140625	4.024658203125
163.381746587501	1.61773681640625	3.9263916015625
164.381746584976	1.61041259765625	3.94622802734375
165.381746582451	1.60003662109375	3.84765625
166.381746579926	1.59332275390625	3.80950927734375
167.381746577402	1.5863037109375	3.96575927734375
168.381746574877	1.58111572265625	3.86749267578125
169.381746572352	1.5875244140625	3.92669677734375
170.381746569827	1.56707763671875	4.00482177734375
171.381746567303	1.57073974609375	3.8287353515625
172.381746564778	1.57623291015625	3.966064453125
173.381746562253	1.58477783203125	3.7652587890625
174.381746559728	1.59210205078125	3.8482666015625
175.381746557204	1.5899658203125	3.76556396484375
176.381746554679	1.634521484375	3.94622802734375
177.381746552154	1.63360595703125	3.90594482421875
178.381746549629	1.63848876953125	3.86810302734375
179.381746547105	1.64337158203125	3.92608642578125
180.38174654458	1.61651611328125	3.8873291015625
181.381746542055	1.64947509765625	4.02374267578125
182.38174653953	1.6510009765625	3.887939453125
183.381746537006	1.64764404296875	3.848876953125
184.381746534481	1.67022705078125	3.8482666015625
185.381746531956	1.55364990234375	3.927001953125
186.381746529431	1.630859375	3.78997802734375
187.381746526907	1.6290283203125	3.92669677734375
188.381746524382	1.63330078125	3.9654541015625
189.381746521857	1.651611328125	3.84857177734375
190.381746519332	1.2188720703125	3.9263916015625
191.381746516808	0.75103759765625	3.88763427734375
192.381746514283	1.920166015625	3.9849853515625
193.381746511758	-2.806396484375	3.907470703125
194.381746509233	-2.39044189453125	4.04449462890625
195.381746506709	-1.34552001953125	3.88763427734375
196.381746504184	-0.23583984375	3.96636962890625
197.381746501659	0.1129150390625	4.12200927734375
198.381746499134	-0.136566162109375	4.0045166015625
199.381746496609	0.052154541015625	3.966064453125
200.381746494085	0.53436279296875	3.96514892578125
201.38174649156	6.28204345703125	3.92547607421875
202.381746489035	4.01824951171875	3.90625
203.38174648651	3.2208251953125	3.8671875
204.381746483986	2.767333984375	3.9068603515625
205.381746481461	2.53692626953125	3.94622802734375
206.381746478936	2.3760986328125	3.9068603515625
207.381746476411	1.05926513671875	4.04388427734375
208.381746473887	1.34490966796875	3.9068603515625
209.381746471362	1.57318115234375	3.9849853515625
210.381746468837	1.54388427734375	3.9263916015625
211.381746466312	1.5411376953125	3.98529052734375
212.381746463788	1.54510498046875	4.04327392578125
213.381746461263	1.55059814453125	4.0240478515625
214.381746458738	1.56402587890625	4.0625
215.381746456213	1.5423583984375	3.98468017578125
216.381746453689	2.13043212890625	4.02435302734375
217.381746451164	-0.051910400390625	3.96636962890625
218.381746448639	-2.23846435546875	4.06402587890625
219.381746446114	-0.67962646484375	4.024658203125
220.38174644359	-1.6839599609375	4.141845703125
221.381746441065	-1.339111328125	4.08294677734375
222.38174643854	-0.47698974609375	3.88763427734375
223.381746436015	0.48583984375	3.90655517578125
224.381746433491	1.34033203125	3.94561767578125
225.381746430966	0.5987548828125	3.86810302734375
226.381746428441	-0.12677001953125	3.98529052734375
227.381746425916	7.09686279296875	3.94500732421875
228.381746423392	6.30828857421875	3.9251708984375
229.381746420867	2.8717041015625	3.92669677734375
230.381746418342	2.8948974609375	3.92608642578125
231.381746415817	2.6849365234375	3.9068603515625
232.381746413292	2.43621826171875	3.9654541015625
233.381746410768	2.23480224609375	4.00482177734375
234.381746408243	2.08892822265625	3.9459228515625
235.381746405718	1.97906494140625	3.92608642578125
236.381746403193	1.90155029296875	3.94622802734375
237.381746400669	1.824951171875	4.04327392578125
238.381746398144	1.76727294921875	3.92669677734375
239.381746395619	1.7169189453125	3.9654541015625
240.381746393094	1.678466796875	3.92669677734375
241.38174639057	1.6448974609375	4.0625
242.381746388045	1.61468505859375	3.9459228515625
243.38174638552	1.58355712890625	4.04296875
244.381746382995	1.55975341796875	3.90655517578125
245.381746380471	1.5386962890625	3.9849853515625
246.381746377946	1.53533935546875	3.84857177734375
247.381746375421	1.51092529296875	3.9263916015625
248.381746372896	1.49261474609375	3.94622802734375
249.381746370372	1.4898681640625	4.0240478515625
250.381746367847	1.5191650390625	3.92669677734375
251.381746365322	1.52313232421875	3.96575927734375
252.381746362797	1.45782470703125	4.0631103515625
253.381746360273	1.40716552734375	4.00543212890625
254.381746357748	1.31744384765625	3.82904052734375
255.381746355223	1.40899658203125	3.9849853515625
256.381746352698	2.99652099609375	4.00421142578125
257.381746350174	2.2393798828125	4.12200927734375
258.381746347649	1.658935546875	4.0240478515625
259.381746345124	0.1422119140625	3.92669677734375
260.381746342599	-2.977294921875	4.0447998046875
261.381746340075	-1.4288330078125	3.90777587890625
262.38174633755	-0.55877685546875	4.04388427734375
263.381746335025	0.00640869140625	4.141845703125
264.3817463325	0.2899169921875	4.27825927734375
265.381746329975	0.4510498046875	4.083251953125
266.381746327451	0.50018310546875	4.239501953125
267.381746324926	0.61767578125	4.06280517578125
268.381746322401	0.60302734375	4.122314453125
269.381746319876	0.631103515625	4.024658203125
270.381746317352	0.51483154296875	4.122314453125
271.381746314827	0.5072021484375	4.17999267578125
272.381746312302	1.10076904296875	4.14093017578125
273.381746309777	8.16162109375	4.1400146484375
274.381746307253	5.4278564453125	4.10125732421875
275.381746304728	4.45831298828125	4.21783447265625
276.381746302203	3.86871337890625	4.12109375
277.381746299678	3.3843994140625	4.12078857421875
278.381746297154	2.85247802734375	4.0631103515625
279.381746294629	1.63543701171875	4.10186767578125
280.381746292104	1.890869140625	0.58685302734375
281.381746289579	1.6607666015625	4.06280517578125
282.381746287055	0.117095947265625	4.12200927734375
283.38174628453	0.117156982421875	4.06280517578125
284.381746282005	0.1171875	4.0631103515625
285.38174627948	0.117218017578125	4.0631103515625
286.381746276956	0.11724853515625	4.18060302734375
287.381746274431	0.1173095703125	4.06341552734375
288.381746271906	0.11737060546875	4.10247802734375
289.381746269381	0.117401123046875	4.0435791015625
290.381746266857	0.117462158203125	3.96636962890625
291.381746264332	0.11749267578125	4.16046142578125
292.381746261807	0.1175537109375	3.98529052734375
293.381746259282	0.117584228515625	4.08233642578125
294.381746256758	0.117645263671875	4.00482177734375
295.381746254233	0.117706298828125	4.102783203125
296.381746251708	0.11773681640625	4.083251953125
297.381746249183	0.1177978515625	4.04296875
298.381746246659	0.11785888671875	4.00421142578125
299.381746244134	0.117889404296875	4.161376953125
300.381746241609	0.117919921875	4.0045166015625
301.381746239084	0.118011474609375	4.0826416015625
302.381746236559	0.1180419921875	4.0240478515625
303.381746234035	0.118072509765625	4.0240478515625
304.38174623151	0.118133544921875	4.16107177734375
305.381746228985	0.1181640625	4.1412353515625
306.38174622646	0.11822509765625	4.122314453125
307.381746223936	0.1182861328125	4.1229248046875
308.381746221411	0.118316650390625	4.122314453125
309.381746218886	0.118377685546875	4.00482177734375
310.381746216361	0.118408203125	3.9849853515625
311.381746213837	0.11846923828125	4.04327392578125
312.381746211312	0.118499755859375	4.02374267578125
313.381746208787	0.118560791015625	4.08172607421875
314.381746206262	0.118621826171875	4.0435791015625
315.381746203738	0.11865234375	3.985595703125
316.381746201213	0.11871337890625	4.20013427734375
317.381746198688	0.1187744140625	4.04449462890625
318.381746196163	0.11883544921875	4.16107177734375
319.381746193639	0.118865966796875	4.122314453125
320.381746191114	0.118896484375	4.0826416015625
321.381746188589	0.11895751953125	4.06280517578125
322.381746186064	0.118988037109375	4.0240478515625
323.38174618354	0.119049072265625	4.08233642578125
324.381746181015	0.11907958984375	0.4705810546875
325.38174617849	0.119140625	4.04388427734375
326.381746175965	0.11920166015625	4.04388427734375
327.381746173441	0.119232177734375	4.12139892578125
328.381746170916	0.119293212890625	4.16107177734375
329.381746168391	0.11932373046875	4.10308837890625
330.381746165866	0.119384765625	4.0240478515625
331.381746163342	0.119384765625	4.122314453125
332.381746160817	0.11944580078125	4.102783203125
333.381746158292	0.119476318359375	3.94622802734375
334.381746155767	0.119537353515625	4.00421142578125
335.381746153242	0.119598388671875	4.102783203125
336.381746150718	0.11962890625	3.9654541015625
337.381746148193	0.11968994140625	4.08294677734375
338.381746145668	0.119720458984375	4.0826416015625
339.381746143143	0.1197509765625	4.0631103515625
340.381746140619	0.11981201171875	3.94683837890625
341.381746138094	0.119842529296875	3.96575927734375
342.381746135569	0.119903564453125	4.00482177734375
343.381746133044	0.119964599609375	4.0631103515625
344.38174613052	0.1199951171875	4.024658203125
345.381746127995	0.12005615234375	4.14154052734375
346.38174612547	0.1201171875	4.102783203125
347.381746122945	0.120147705078125	3.94683837890625
348.381746120421	0.120208740234375	4.0435791015625
349.381746117896	0.1202392578125	4.04327392578125
350.381746115371	0.120269775390625	4.10247802734375
351.381746112846	0.120330810546875	4.024658203125
352.381746110322	0.120391845703125	4.0631103515625
353.381746107797	0.12042236328125	4.14154052734375
354.381746105272	0.1204833984375	4.04388427734375
355.381746102747	0.12054443359375	3.966064453125
356.381746100223	0.120574951171875	4.04388427734375
357.381746097698	0.120635986328125	4.0631103515625
358.381746095173	0.120697021484375	4.06280517578125
359.381746092648	0.1207275390625	0.49298095703125
360.381746090124	0.12078857421875	4.06341552734375
361.381746087599	0.120849609375	4.122314453125
362.381746085074	0.120880126953125	4.102783203125
363.381746082549	0.120941162109375	4.024658203125
364.381746080025	0.1209716796875	4.00421142578125
365.3817460775	0.121002197265625	4.08294677734375
366.381746074975	0.121063232421875	4.024658203125
367.38174607245	0.12109375	4.1021728515625
368.381746069925	0.12115478515625	4.0240478515625
369.381746067401	0.121185302734375	4.10247802734375
370.381746064876	0.121246337890625	3.966064453125
371.381746062351	0.12127685546875	4.17999267578125
372.381746059826	0.121337890625	4.21966552734375
373.381746057302	0.121368408203125	4.063720703125
374.381746054777	0.121429443359375	4.14154052734375
375.381746052252	0.1214599609375	4.04388427734375
376.381746049727	0.12152099609375	4.14093017578125
377.381746047203	0.121551513671875	4.122314453125
378.381746044678	0.121612548828125	4.06280517578125
379.381746042153	0.12164306640625	4.08355712890625
380.381746039628	0.121673583984375	4.122314453125
381.381746037104	0.1217041015625	4.0240478515625
382.381746034579	0.12176513671875	3.966064453125
383.381746032054	0.121795654296875	4.1217041015625
384.381746029529	0.121856689453125	4.1412353515625
385.381746027005	0.12188720703125	3.94683837890625
386.38174602448	0.121917724609375	4.02496337890625
387.381746021955	0.121978759765625	3.96575927734375
388.38174601943	0.122039794921875	4.08294677734375
389.381746016906	0.1220703125	3.9471435546875
390.381746014381	0.122100830078125	4.0045166015625
391.381746011856	0.122161865234375	3.96636962890625
392.381746009331	0.122222900390625	3.9654541015625
393.381746006807	0.122283935546875	3.98529052734375
394.381746004282	0.122314453125	4.04388427734375
395.381746001757	0.12237548828125	4.14154052734375
396.381745999232	0.122406005859375	3.9849853515625
397.381745996708	0.122467041015625	4.024658203125
398.381745994183	0.12249755859375	4.04327392578125
399.381745991658	0.122528076171875	4.06219482421875
400.381745989133	0.12261962890625	4.044189453125
401.381745986609	0.122650146484375	4.1217041015625
