Time (s)	WE(1).Potential (V)	External(1).External 2 (V)
402.843346982918	0.122711181640625	4.06280517578125
403.843346980394	0.122772216796875	4.02435302734375
404.843346977869	0.122802734375	4.12261962890625
405.843346975344	0.12286376953125	4.10308837890625
406.843346972819	0.12286376953125	3.9862060546875
407.843346970295	0.1229248046875	4.06280517578125
408.84334696777	0.122955322265625	3.98590087890625
409.843346965245	0.123016357421875	3.98529052734375
410.84334696272	0.123046875	4.0240478515625
411.843346960196	0.12310791015625	4.1412353515625
412.843346957671	0.1231689453125	3.9666748046875
413.843346955146	0.123199462890625	3.98651123046875
414.843346952621	0.12322998046875	4.14154052734375
415.843346950096	0.123291015625	4.0240478515625
416.843346947572	0.12335205078125	4.06341552734375
417.843346945047	0.123382568359375	4.1021728515625
418.843346942522	0.123443603515625	4.005126953125
419.843346939997	0.12347412109375	4.1229248046875
420.843346937473	0.123504638671875	4.14093017578125
421.843346934948	0.123565673828125	4.04388427734375
422.843346932423	0.12359619140625	4.02435302734375
423.843346929898	0.1236572265625	4.141845703125
424.843346927374	0.123687744140625	4.00482177734375
425.843346924849	0.12371826171875	4.04388427734375
426.843346922324	0.123779296875	4.00482177734375
427.843346919799	0.12384033203125	4.06280517578125
428.843346917275	0.123870849609375	4.180908203125
429.84334691475	0.123931884765625	4.14215087890625
430.843346912225	0.12396240234375	4.04388427734375
431.8433469097	0.1240234375	4.0631103515625
432.843346907176	0.12408447265625	4.044189453125
433.843346904651	0.124114990234375	4.0826416015625
434.843346902126	0.124176025390625	4.0240478515625
435.843346899601	0.124237060546875	4.024658203125
436.843346897077	0.124267578125	4.02435302734375
437.843346894552	0.12432861328125	4.0826416015625
438.843346892027	0.124359130859375	3.9263916015625
439.843346889502	0.124420166015625	4.00482177734375
440.843346886978	0.124481201171875	4.20013427734375
441.843346884453	0.12451171875	4.0435791015625
442.843346881928	0.12457275390625	4.122314453125
443.843346879403	0.1246337890625	4.141845703125
444.843346876879	0.124664306640625	4.04388427734375
445.843346874354	0.124725341796875	4.10247802734375
446.843346871829	0.124755859375	4.0826416015625
447.843346869304	0.12481689453125	4.00421142578125
448.843346866779	0.124847412109375	4.063720703125
449.843346864255	0.1248779296875	4.06280517578125
450.84334686173	0.124908447265625	3.94622802734375
451.843346859205	0.124969482421875	4.024658203125
452.84334685668	0.125030517578125	4.0826416015625
453.843346854156	0.12506103515625	4.06341552734375
454.843346851631	0.1251220703125	3.96636962890625
455.843346849106	0.1251220703125	4.04327392578125
456.843346846581	0.12518310546875	4.04388427734375
457.843346844057	0.125213623046875	3.98529052734375
458.843346841532	0.125274658203125	4.10308837890625
459.843346839007	0.12530517578125	3.9849853515625
460.843346836482	0.1253662109375	4.08294677734375
461.843346833958	0.125396728515625	4.08233642578125
462.843346831433	0.125457763671875	4.04388427734375
463.843346828908	0.12548828125	4.10247802734375
464.843346826383	0.12554931640625	4.10308837890625
465.843346823859	0.125579833984375	3.96575927734375
466.843346821334	0.125640869140625	4.0631103515625
467.843346818809	0.12567138671875	4.02435302734375
468.843346816284	0.125701904296875	3.96575927734375
469.84334681376	0.125762939453125	4.122314453125
470.843346811235	0.125823974609375	4.0631103515625
471.84334680871	0.1258544921875	4.0435791015625
472.843346806185	0.12591552734375	4.180908203125
473.843346803661	0.125946044921875	4.08294677734375
474.843346801136	0.1259765625	4.083251953125
475.843346798611	0.126007080078125	4.02435302734375
476.843346796086	0.126068115234375	4.00482177734375
477.843346793562	0.126129150390625	4.0826416015625
478.843346791037	0.12615966796875	4.102783203125
479.843346788512	0.126190185546875	4.04388427734375
480.843346785987	0.126251220703125	3.90655517578125
481.843346783462	0.12628173828125	4.083251953125
482.843346780938	0.1263427734375	4.083251953125
483.843346778413	0.126373291015625	3.98529052734375
484.843346775888	0.12640380859375	4.0240478515625
485.843346773363	0.12646484375	4.0435791015625
486.843346770839	0.126495361328125	4.08294677734375
487.843346768314	0.126556396484375	4.0631103515625
488.843346765789	0.1265869140625	4.0625
489.843346763264	0.12664794921875	4.18060302734375
490.84334676074	0.126678466796875	4.0631103515625
491.843346758215	0.126739501953125	3.9862060546875
492.84334675569	0.12677001953125	4.12200927734375
493.843346753165	0.1268310546875	4.12261962890625
494.843346750641	0.12689208984375	4.161376953125
495.843346748116	0.126922607421875	4.02435302734375
496.843346745591	0.126953125	3.98468017578125
497.843346743066	0.12701416015625	4.0631103515625
498.843346740542	0.1270751953125	4.1033935546875
499.843346738017	0.127105712890625	4.04388427734375
500.843346735492	0.12713623046875	3.985595703125
501.843346732967	0.127197265625	4.08233642578125
502.843346730443	0.127227783203125	4.0826416015625
503.843346727918	0.127288818359375	4.06280517578125
504.843346725393	0.127349853515625	4.0240478515625
505.843346722868	0.127349853515625	4.10308837890625
506.843346720344	0.12744140625	4.10308837890625
507.843346717819	0.127471923828125	4.02435302734375
508.843346715294	0.12750244140625	4.02496337890625
509.843346712769	0.127532958984375	4.0826416015625
510.843346710245	0.127593994140625	3.98529052734375
511.84334670772	0.127655029296875	3.9459228515625
512.843346705195	0.127685546875	4.12261962890625
513.84334670267	0.127716064453125	4.04388427734375
514.843346700146	0.127777099609375	4.18060302734375
515.843346697621	0.1278076171875	4.18060302734375
516.843346695096	0.127838134765625	4.122314453125
517.843346692571	0.127899169921875	3.9849853515625
518.843346690046	0.127960205078125	4.0631103515625
519.843346687522	0.12799072265625	4.0631103515625
520.843346684997	0.1280517578125	4.06341552734375
521.843346682472	0.128082275390625	4.08294677734375
