Time (s)	WE(1).Potential (V)
2.05222699481862	0.473480224609375
3.05222699229387	0.474700927734375
4.05222698976911	0.475860595703125
5.05222698724435	0.477020263671875
6.0522269847196	0.4781494140625
7.05222698219484	0.479217529296875
8.05222697967008	0.480255126953125
9.05222697714532	0.48126220703125
10.0522269746206	0.48223876953125
11.0522269720958	0.483154296875
12.0522269695711	0.48406982421875
13.0522269670463	0.4849853515625
14.0522269645215	0.485870361328125
15.0522269619968	0.48675537109375
16.052226959472	0.487579345703125
17.0522269569473	0.488433837890625
18.0522269544225	0.4892578125
19.0522269518978	0.4901123046875
20.052226949373	0.49090576171875
21.0522269468482	0.49169921875
22.0522269443235	0.49249267578125
23.0522269417987	0.4932861328125
24.052226939274	0.494049072265625
25.0522269367492	0.494781494140625
26.0522269342244	0.495513916015625
27.0522269316997	0.4962158203125
28.0522269291749	0.496856689453125
29.0522269266502	0.49749755859375
30.0522269241254	0.4981689453125
31.0522269216007	0.498809814453125
32.0522269190759	0.49957275390625
33.0522269165511	0.50018310546875
34.0522269140264	0.50079345703125
35.0522269115016	0.50140380859375
36.0522269089769	0.50201416015625
37.0522269064521	0.50262451171875
38.0522269039274	0.50323486328125
39.0522269014026	0.50384521484375
40.0522268988778	0.50445556640625
41.0522268963531	0.5047607421875
42.0522268938283	0.50537109375
43.0522268913036	0.5059814453125
44.0522268887788	0.50628662109375
45.0522268862541	0.50689697265625
46.0522268837293	0.50750732421875
47.0522268812045	0.5078125
48.0522268786798	0.5084228515625
49.052226876155	0.509033203125
50.0522268736303	0.50933837890625
51.0522268711055	0.50994873046875
52.0522268685808	0.51025390625
53.052226866056	0.5108642578125
54.0522268635312	0.51116943359375
55.0522268610065	0.51177978515625
56.0522268584817	0.5120849609375
57.052226855957	0.5126953125
58.0522268534322	0.51300048828125
59.0522268509075	0.5133056640625
60.0522268483827	0.513916015625
61.0522268458579	0.51422119140625
62.0522268433332	0.51483154296875
63.0522268408084	0.51513671875
64.0522268382837	0.51544189453125
65.0522268357589	0.51605224609375
66.0522268332342	0.516357421875
67.0522268307094	0.51666259765625
68.0522268281846	0.51727294921875
69.0522268256599	0.517578125
70.0522268231351	0.51788330078125
71.0522268206104	0.5181884765625
72.0522268180856	0.518798828125
73.0522268155609	0.51910400390625
74.0522268130361	0.5194091796875
75.0522268105113	0.51971435546875
76.0522268079866	0.52001953125
77.0522268054618	0.52032470703125
78.0522268029371	0.52093505859375
79.0522268004123	0.521240234375
80.0522267978876	0.52154541015625
81.0522267953628	0.5218505859375
82.052226792838	0.52215576171875
83.0522267903133	0.5224609375
84.0522267877885	0.5230712890625
85.0522267852638	0.52337646484375
86.052226782739	0.523681640625
87.0522267802143	0.52398681640625
88.0522267776895	0.5242919921875
89.0522267751647	0.52459716796875
90.05222677264	0.52490234375
91.0522267701152	0.52520751953125
92.0522267675905	0.5255126953125
93.0522267650657	0.52581787109375
94.052226762541	0.526123046875
95.0522267600162	0.52642822265625
96.0522267574914	0.52642822265625
97.0522267549667	0.5267333984375
98.0522267524419	0.52703857421875
99.0522267499172	0.52734375
100.052226747392	0.52764892578125
101.052226744868	0.5279541015625
102.052226742343	0.52825927734375
103.052226739818	0.528564453125
104.052226737293	0.52886962890625
105.052226734769	0.5291748046875
106.052226732244	0.5291748046875
107.052226729719	0.52947998046875
108.052226727194	0.52978515625
109.05222672467	0.53009033203125
110.052226722145	0.5303955078125
111.05222671962	0.5303955078125
112.052226717095	0.53070068359375
113.052226714571	0.531005859375
114.052226712046	0.53131103515625
115.052226709521	0.5316162109375
116.052226706996	0.5316162109375
117.052226704472	0.53192138671875
118.052226701947	0.5322265625
119.052226699422	0.53253173828125
120.052226696897	0.53253173828125
121.052226694373	0.5328369140625
122.052226691848	0.53314208984375
123.052226689323	0.533447265625
124.052226686798	0.53375244140625
125.052226684273	0.53375244140625
126.052226681749	0.5340576171875
127.052226679224	0.53436279296875
128.052226676699	0.53436279296875
129.052226674174	0.53466796875
130.05222667165	0.53497314453125
131.052226669125	0.5352783203125
132.0522266666	0.5352783203125
133.052226664075	0.53558349609375
134.052226661551	0.535888671875
135.052226659026	0.535888671875
136.052226656501	0.53619384765625
137.052226653976	0.5364990234375
138.052226651452	0.5364990234375
139.052226648927	0.53680419921875
140.052226646402	0.537109375
141.052226643877	0.537109375
142.052226641353	0.53741455078125
143.052226638828	0.5377197265625
144.052226636303	0.5377197265625
145.052226633778	0.53802490234375
146.052226631254	0.53802490234375
147.052226628729	0.538330078125
148.052226626204	0.53863525390625
149.052226623679	0.53863525390625
150.052226621155	0.5389404296875
151.05222661863	0.5389404296875
152.052226616105	0.53924560546875
153.05222661358	0.53955078125
154.052226611056	0.53955078125
155.052226608531	0.53985595703125
156.052226606006	0.53985595703125
157.052226603481	0.5401611328125
158.052226600956	0.5401611328125
159.052226598432	0.54046630859375
160.052226595907	0.540771484375
161.052226593382	0.540771484375
162.052226590857	0.540771484375
163.052226588333	0.54107666015625
164.052226585808	0.5413818359375
165.052226583283	0.5413818359375
166.052226580758	0.540771484375
167.052226578234	0.54107666015625
168.052226575709	0.5413818359375
169.052226573184	0.5413818359375
170.052226570659	0.54168701171875
171.052226568135	0.54168701171875
172.05222656561	0.5419921875
173.052226563085	0.5419921875
174.05222656056	0.54229736328125
175.052226558036	0.54229736328125
176.052226555511	0.5426025390625
177.052226552986	0.5426025390625
178.052226550461	0.54290771484375
179.052226547937	0.54290771484375
180.052226545412	0.543212890625
181.052226542887	0.543212890625
