Time (s)	WE(1).Potential (V)
3017.2419623822	0.0274749755859375
3018.24196237967	0.0426055908203125
3019.24196237715	0.0565185546875
3020.24196237462	0.06939697265625
3021.2419623721	0.081298828125
3022.24196236957	0.092376708984375
3023.24196236705	0.10272216796875
3024.24196236452	0.11236572265625
3025.241962362	0.121368408203125
3026.24196235947	0.12982177734375
3027.24196235695	0.137725830078125
3028.24196235442	0.145172119140625
3029.2419623519	0.15216064453125
3030.24196234937	0.15875244140625
3031.24196234685	0.164947509765625
3032.24196234432	0.17083740234375
3033.2419623418	0.176422119140625
3034.24196233928	0.181671142578125
3035.24196233675	0.18670654296875
3036.24196233423	0.19146728515625
3037.2419623317	0.196014404296875
3038.24196232918	0.20037841796875
3039.24196232665	0.20452880859375
3040.24196232413	0.208526611328125
3041.2419623216	0.21234130859375
3042.24196231908	0.216033935546875
3043.24196231655	0.2196044921875
3044.24196231403	0.223052978515625
3045.2419623115	0.22637939453125
3046.24196230898	0.2296142578125
3047.24196230645	0.232757568359375
3048.24196230393	0.23583984375
3049.2419623014	0.23883056640625
3050.24196229888	0.24176025390625
3051.24196229635	0.24462890625
3052.24196229383	0.2474365234375
3053.2419622913	0.250213623046875
3054.24196228878	0.2529296875
3055.24196228626	0.255615234375
3056.24196228373	0.258270263671875
3057.24196228121	0.260894775390625
3058.24196227868	0.263519287109375
3059.24196227616	0.26611328125
3060.24196227363	0.268707275390625
3061.24196227111	0.271270751953125
3062.24196226858	0.2738037109375
3063.24196226606	0.2763671875
3064.24196226353	0.2789306640625
3065.24196226101	0.281463623046875
3066.24196225848	0.284027099609375
3067.24196225596	0.28662109375
3068.24196225343	0.289215087890625
3069.24196225091	0.29180908203125
3070.24196224838	0.29443359375
3071.24196224586	0.297119140625
3072.24196224333	0.2998046875
3073.24196224081	0.30255126953125
3074.24196223828	0.3052978515625
3075.24196223576	0.30810546875
3076.24196223324	0.31097412109375
3077.24196223071	0.31390380859375
3078.24196222819	0.316864013671875
3079.24196222566	0.319915771484375
3080.24196222314	0.323028564453125
3081.24196222061	0.326202392578125
3082.24196221809	0.329437255859375
3083.24196221556	0.332794189453125
3084.24196221304	0.336181640625
3085.24196221051	0.339691162109375
3086.24196220799	0.343231201171875
3087.24196220546	0.34686279296875
3088.24196220294	0.3505859375
3089.24196220041	0.354339599609375
3090.24196219789	0.358184814453125
3091.24196219536	0.362060546875
3092.24196219284	0.365997314453125
3093.24196219031	0.369964599609375
3094.24196218779	0.37396240234375
3095.24196218527	0.377960205078125
3096.24196218274	0.381988525390625
3097.24196218022	0.386016845703125
3098.24196217769	0.39007568359375
3099.24196217517	0.394134521484375
3100.24196217264	0.398193359375
3101.24196217012	0.402252197265625
3102.24196216759	0.40631103515625
3103.24196216507	0.410369873046875
3104.24196216254	0.4144287109375
3105.24196216002	0.41845703125
3106.24196215749	0.422515869140625
3107.24196215497	0.426544189453125
3108.24196215244	0.4305419921875
3109.24196214992	0.4345703125
3110.24196214739	0.438568115234375
3111.24196214487	0.44256591796875
3112.24196214234	0.446502685546875
3113.24196213982	0.450439453125
3114.24196213729	0.454315185546875
3115.24196213477	0.4581298828125
3116.24196213225	0.461883544921875
3117.24196212972	0.465576171875
3118.2419621272	0.46917724609375
3119.24196212467	0.472686767578125
3120.24196212215	0.476104736328125
3121.24196211962	0.479400634765625
3122.2419621171	0.482574462890625
3123.24196211457	0.485626220703125
3124.24196211205	0.488494873046875
3125.24196210952	0.491180419921875
3126.241962107	0.49371337890625
3127.24196210447	0.496124267578125
3128.24196210195	0.49835205078125
3129.24196209942	0.50079345703125
3130.2419620969	0.50262451171875
3131.24196209437	0.50445556640625
3132.24196209185	0.5059814453125
3133.24196208932	0.50750732421875
3134.2419620868	0.509033203125
3135.24196208427	0.51025390625
3136.24196208175	0.51116943359375
3137.24196207923	0.51239013671875
3138.2419620767	0.5133056640625
3139.24196207418	0.51422119140625
3140.24196207165	0.51513671875
3141.24196206913	0.5157470703125
3142.2419620666	0.516357421875
3143.24196206408	0.5169677734375
3144.24196206155	0.517578125
3145.24196205903	0.5181884765625
3146.2419620565	0.51849365234375
3147.24196205398	0.51910400390625
3148.24196205145	0.5194091796875
3149.24196204893	0.52001953125
3150.2419620464	0.52032470703125
3151.24196204388	0.5206298828125
3152.24196204135	0.52093505859375
3153.24196203883	0.521240234375
3154.2419620363	0.52154541015625
3155.24196203378	0.5218505859375
3156.24196203125	0.52215576171875
3157.24196202873	0.5224609375
3158.24196202621	0.5224609375
3159.24196202368	0.52276611328125
3160.24196202116	0.5230712890625
3161.24196201863	0.5230712890625
3162.24196201611	0.52337646484375
3163.24196201358	0.523681640625
3164.24196201106	0.523681640625
3165.24196200853	0.52398681640625
3166.24196200601	0.5242919921875
3167.24196200348	0.5242919921875
3168.24196200096	0.52459716796875
3169.24196199843	0.52459716796875
3170.24196199591	0.52490234375
3171.24196199338	0.52490234375
3172.24196199086	0.52520751953125
3173.24196198833	0.52520751953125
3174.24196198581	0.5255126953125
3175.24196198328	0.5255126953125
3176.24196198076	0.52581787109375
3177.24196197823	0.52581787109375
3178.24196197571	0.52581787109375
3179.24196197319	0.526123046875
3180.24196197066	0.526123046875
3181.24196196814	0.52642822265625
3182.24196196561	0.52642822265625
3183.24196196309	0.52642822265625
3184.24196196056	0.5267333984375
3185.24196195804	0.5267333984375
3186.24196195551	0.5267333984375
3187.24196195299	0.52703857421875
3188.24196195046	0.52703857421875
3189.24196194794	0.52703857421875
3190.24196194541	0.52734375
3191.24196194289	0.52734375
3192.24196194036	0.52734375
3193.24196193784	0.52734375
3194.24196193531	0.52764892578125
3195.24196193279	0.52764892578125
3196.24196193026	0.52764892578125
