Time (s)	WE(1).Potential (V)	WE(1).Current (A)
37.9992319040612	0.17095947265625	2.593994140625E-08
38.0968879038146	0.173492431640625	3.84521484375E-08
38.194543903568	0.176513671875	4.57763671875E-08
38.2921999033215	0.17822265625	5.401611328125E-08
38.3898559030749	0.180694580078125	4.6356201171875E-08
38.4875119028284	0.183502197265625	5.0628662109375E-08
38.5851679025818	0.18511962890625	5.6915283203125E-08
38.6828239023353	0.188018798828125	5.3070068359375E-08
38.7804799020887	0.190643310546875	5.99365234375E-08
38.8781359018421	0.19281005859375	6.11572265625E-08
38.9757919015956	0.197052001953125	6.54296875E-08
39.073447901349	0.197845458984375	6.15234375E-08
39.1711039011025	0.2008056640625	6.689453125E-08
39.2687599008559	0.2025146484375	6.60400390625E-08
39.3664159006094	0.204132080078125	6.4788818359375E-08
39.4640719003628	0.210479736328125	7.9620361328125E-08
39.5617279001162	0.210205078125	6.3873291015625E-08
39.6593838998697	0.212738037109375	7.3699951171875E-08
39.7570398996231	0.21685791015625	7.5042724609375E-08
39.8546958993766	0.2169189453125	6.9580078125E-08
39.95235189913	0.218994140625	7.43408203125E-08
40.0500078988835	0.220672607421875	7.0648193359375E-08
40.1476638986369	0.225006103515625	7.183837890625E-08
40.2453198983903	0.227264404296875	7.9132080078125E-08
40.3429758981438	0.230621337890625	8.30078125E-08
40.4406318978972	0.231781005859375	7.4951171875E-08
40.5382878976507	0.2340087890625	7.464599609375E-08
40.6359438974041	0.236968994140625	8.1207275390625E-08
40.7335998971575	0.23736572265625	6.5887451171875E-08
40.831255896911	0.24163818359375	7.958984375E-08
40.9289118966644	0.243988037109375	8.3831787109375E-08
41.0265678964179	0.246612548828125	8.270263671875E-08
41.1242238961713	0.250274658203125	8.2611083984375E-08
41.2218798959248	0.248504638671875	7.525634765625E-08
41.3195358956782	0.2535400390625	8.6456298828125E-08
41.4171918954316	0.254119873046875	7.6690673828125E-08
41.5148478951851	0.256591796875	8.172607421875E-08
41.6125038949385	0.261688232421875	8.8958740234375E-08
41.710159894692	0.2645263671875	8.5968017578125E-08
41.8078158944454	0.268463134765625	9.735107421875E-08
41.9054718941989	0.268310546875	8.514404296875E-08
42.0031278939523	0.27081298828125	8.123779296875E-08
42.1007838937057	0.271942138671875	8.6029052734375E-08
42.1984398934592	0.27545166015625	8.2366943359375E-08
42.2960958932126	0.278594970703125	9.271240234375E-08
42.3937518929661	0.28033447265625	8.7677001953125E-08
42.4914078927195	0.285430908203125	9.6160888671875E-08
42.589063892473	0.28594970703125	1.02294921875E-07
42.6867198922264	0.288665771484375	9.5245361328125E-08
42.7843758919798	0.29010009765625	9.04541015625E-08
42.8820318917333	0.2913818359375	8.8226318359375E-08
42.9796878914867	0.297698974609375	1.00250244140625E-07
43.0773438912402	0.2979736328125	9.375E-08
43.1749998909936	0.3011474609375	9.8480224609375E-08
43.272655890747	0.303619384765625	1.01593017578125E-07
43.3703118905005	0.30535888671875	1.00921630859375E-07
43.4679678902539	0.30712890625	9.814453125E-08
43.5656238900074	0.30877685546875	9.4024658203125E-08
43.6632798897608	0.3128662109375	9.9212646484375E-08
43.7609358895143	0.31500244140625	9.637451171875E-08
43.8585918892677	0.317901611328125	1.09466552734375E-07
43.9562478890211	0.32086181640625	1.0064697265625E-07
44.0539038887746	0.319610595703125	9.295654296875E-08
44.151559888528	0.324798583984375	9.87548828125E-08
44.2492158882815	0.325164794921875	9.564208984375E-08
44.3468718880349	0.328033447265625	1.00250244140625E-07
44.4445278877884	0.331207275390625	1.01898193359375E-07
44.5421838875418	0.334930419921875	1.06658935546875E-07
44.6398398872952	0.33758544921875	1.10565185546875E-07
44.7374958870487	0.337738037109375	9.716796875E-08
44.8351518868021	0.341278076171875	1.07452392578125E-07
44.9328078865556	0.34222412109375	1.00189208984375E-07
45.030463886309	0.346832275390625	1.05133056640625E-07
45.1281198860625	0.349151611328125	1.06781005859375E-07
45.2257758858159	0.3511962890625	1.0693359375E-07
45.3234318855693	0.355010986328125	1.103515625E-07
45.4210878853228	0.35650634765625	1.10687255859375E-07
45.5187438850762	0.358642578125	1.1053466796875E-07
45.6163998848297	0.360076904296875	1.0467529296875E-07
45.7140558845831	0.362091064453125	9.94873046875E-08
45.8117118843365	0.36846923828125	1.17950439453125E-07
45.90936788409	0.368988037109375	1.10382080078125E-07
46.0070238838434	0.371978759765625	1.1578369140625E-07
46.1046798835969	0.373626708984375	1.08245849609375E-07
46.2023358833503	0.376312255859375	1.13037109375E-07
46.2999918831038	0.378265380859375	1.124267578125E-07
46.3976478828572	0.379364013671875	1.07696533203125E-07
46.4953038826106	0.383453369140625	1.15753173828125E-07
46.5929598823641	0.3848876953125	1.13739013671875E-07
46.6906158821175	0.388092041015625	1.214599609375E-07
46.788271881871	0.391204833984375	1.20269775390625E-07
46.8859278816244	0.389923095703125	1.09710693359375E-07
46.9835838813779	0.395111083984375	1.121826171875E-07
47.0812398811313	0.396270751953125	1.126708984375E-07
47.1788958808847	0.399322509765625	1.20208740234375E-07
47.2765518806382	0.4024658203125	1.14044189453125E-07
47.3742078803916	0.405426025390625	1.17584228515625E-07
47.4718638801451	0.408599853515625	1.248779296875E-07
47.5695198798985	0.4097900390625	1.1883544921875E-07
47.667175879652	0.412078857421875	1.2445068359375E-07
47.7648318794054	0.414215087890625	1.17431640625E-07
47.8624878791588	0.415802001953125	1.182861328125E-07
47.9601438789123	0.422515869140625	1.25701904296875E-07
48.0577998786657	0.42169189453125	1.24053955078125E-07
48.1554558784192	0.425018310546875	1.2615966796875E-07
48.2531118781726	0.42755126953125	1.22528076171875E-07
48.350767877926	0.4290771484375	1.25885009765625E-07
48.4484238776795	0.43121337890625	1.234130859375E-07
48.5460798774329	0.43328857421875	1.23626708984375E-07
48.6437358771864	0.43695068359375	1.28631591796875E-07
48.7413918769398	0.439453125	1.29669189453125E-07
48.8390478766933	0.442474365234375	1.287841796875E-07
48.9367038764467	0.4443359375	1.32843017578125E-07
49.0343598762001	0.4442138671875	1.2359619140625E-07
49.1320158759536	0.449371337890625	1.32568359375E-07
49.229671875707	0.44970703125	1.24420166015625E-07
49.3273278754605	0.452239990234375	1.28753662109375E-07
49.4249838752139	0.456451416015625	1.41510009765625E-07
49.5226398749674	0.458831787109375	1.30950927734375E-07
49.6202958747208	0.4632568359375	1.3983154296875E-07
49.7179518744742	0.46392822265625	1.365966796875E-07
49.8156078742277	0.465850830078125	1.3623046875E-07
49.9132638739811	0.466766357421875	1.35772705078125E-07
50.0109198737346	0.47003173828125	1.35101318359375E-07
50.108575873488	0.47296142578125	1.42852783203125E-07
50.2062318732415	0.475830078125	1.4599609375E-07
50.3038878729949	0.480072021484375	1.46820068359375E-07
50.4015438727483	0.480743408203125	1.43951416015625E-07
50.4991998725018	0.48309326171875	1.3958740234375E-07
50.5968558722552	0.485382080078125	1.4288330078125E-07
50.6945118720087	0.486114501953125	1.43463134765625E-07
50.7921678717621	0.4930419921875	1.5264892578125E-07
50.8898238715155	0.4930419921875	1.43707275390625E-07
50.987479871269	0.496185302734375	1.53778076171875E-07
51.0851358710224	0.498046875	1.45263671875E-07
51.1827918707759	0.499908447265625	1.48345947265625E-07
51.2804478705293	0.502532958984375	1.47674560546875E-07
51.3781038702828	0.5037841796875	1.49322509765625E-07
51.4757598700362	0.50787353515625	1.4959716796875E-07
51.5734158697896	0.50994873046875	1.5185546875E-07
51.6710718695431	0.512542724609375	1.56402587890625E-07
51.7687278692965	0.51617431640625	1.57135009765625E-07
51.86638386905	0.514190673828125	1.51824951171875E-07
51.9640398688034	0.519073486328125	1.5606689453125E-07
52.0616958685569	0.519866943359375	1.5338134765625E-07
52.1593518683103	0.522216796875	1.55181884765625E-07
52.2570078680637	0.526763916015625	1.62353515625E-07
52.3546638678172	0.530029296875	1.597900390625E-07
52.4523198675706	0.533172607421875	1.6510009765625E-07
52.5499758673241	0.5338134765625	1.61773681640625E-07
52.6476318670775	0.537017822265625	1.63665771484375E-07
52.7452878668309	0.53851318359375	1.6436767578125E-07
52.8429438665844	0.540069580078125	1.630859375E-07
52.9405998663378	0.546356201171875	1.7742919921875E-07
53.0382558660913	0.546356201171875	1.7474365234375E-07
53.1359118658447	0.54949951171875	1.70867919921875E-07
53.2335678655982	0.55316162109375	1.74285888671875E-07
53.3312238653516	0.5533447265625	1.761474609375E-07
53.428879865105	0.555419921875	1.7889404296875E-07
53.5265358648585	0.557159423828125	1.71844482421875E-07
53.6241918646119	0.561248779296875	1.6888427734375E-07
53.7218478643654	0.56341552734375	1.85882568359375E-07
53.8195038641188	0.56646728515625	1.84600830078125E-07
53.9171598638723	0.568450927734375	1.8548583984375E-07
54.0148158636257	0.570098876953125	1.77825927734375E-07
54.1124718633791	0.572967529296875	1.8438720703125E-07
54.2101278631326	0.573516845703125	1.80511474609375E-07
54.307783862886	0.5770263671875	1.81640625E-07
54.4054398626395	0.579925537109375	1.93145751953125E-07
54.5030958623929	0.58392333984375	1.95526123046875E-07
54.6007518621464	0.586029052734375	2.02056884765625E-07
54.6984078618998	0.585784912109375	1.9122314453125E-07
54.7960638616532	0.590423583984375	1.95831298828125E-07
54.8937198614067	0.59149169921875	1.9580078125E-07
54.9913758611601	0.594451904296875	1.98211669921875E-07
55.0890318609136	0.598297119140625	2.0245361328125E-07
55.186687860667	0.60028076171875	2.100830078125E-07
55.2843438604204	0.604522705078125	2.12158203125E-07
55.3819998601739	0.60528564453125	2.1405029296875E-07
55.4796558599273	0.60699462890625	2.11822509765625E-07
55.5773118596808	0.608245849609375	2.09564208984375E-07
55.6749678594342	0.6107177734375	2.11395263671875E-07
55.7726238591877	0.6163330078125	2.2943115234375E-07
55.8702798589411	0.6168212890625	2.200927734375E-07
55.9679358586945	0.62091064453125	2.2552490234375E-07
56.065591858448	0.623046875	2.2821044921875E-07
56.1632478582014	0.6248779296875	2.23297119140625E-07
56.2609038579549	0.626220703125	2.3077392578125E-07
56.3585598577083	0.6273193359375	2.25738525390625E-07
56.4562158574618	0.631683349609375	2.27630615234375E-07
56.5538718572152	0.634124755859375	2.2686767578125E-07
56.6515278569686	0.6373291015625	2.36175537109375E-07
56.7491838567221	0.639190673828125	2.39471435546875E-07
56.8468398564755	0.641693115234375	2.35107421875E-07
56.944495856229	0.643524169921875	2.39593505859375E-07
57.0421518559824	0.644622802734375	2.3736572265625E-07
57.1398078557359	0.6480712890625	2.42279052734375E-07
57.2374638554893	0.65093994140625	2.47833251953125E-07
57.3351198552427	0.65338134765625	2.5689697265625E-07
57.4327758549962	0.657806396484375	2.61688232421875E-07
57.5304318547496	0.65740966796875	2.5506591796875E-07
57.6280878545031	0.660552978515625	2.58453369140625E-07
57.7257438542565	0.661590576171875	2.6068115234375E-07
57.8233998540099	0.664947509765625	2.6507568359375E-07
57.9210558537634	0.667938232421875	2.67547607421875E-07
58.0187118535168	0.666168212890625	2.19818115234375E-07
58.1163678532703	0.66546630859375	1.91009521484375E-07
58.2140238530237	0.6612548828125	1.61834716796875E-07
58.3116798527772	0.658447265625	1.4483642578125E-07
58.4093358525306	0.65576171875	1.25274658203125E-07
58.506991852284	0.6522216796875	1.1114501953125E-07
58.6046478520375	0.653350830078125	1.080322265625E-07
58.7023038517909	0.64837646484375	9.4818115234375E-08
58.7999598515444	0.647613525390625	9.1583251953125E-08
58.8976158512978	0.644805908203125	8.1024169921875E-08
58.9952718510513	0.6422119140625	7.8125E-08
59.0929278508047	0.638580322265625	6.3507080078125E-08
59.1905838505581	0.63623046875	5.6243896484375E-08
59.2882398503116	0.63421630859375	5.1025390625E-08
59.385895850065	0.632415771484375	5.5206298828125E-08
59.4835518498185	0.63043212890625	4.9713134765625E-08
59.5812078495719	0.627105712890625	5.3436279296875E-08
59.6788638493254	0.622222900390625	3.0914306640625E-08
59.7765198490788	0.6226806640625	3.4149169921875E-08
59.8741758488322	0.61865234375	3.08837890625E-08
59.9718318485857	0.615936279296875	2.996826171875E-08
60.0694878483391	0.61553955078125	2.86865234375E-08
60.1671438480926	0.6124267578125	2.64892578125E-08
60.264799847846	0.61224365234375	2.47802734375E-08
60.3624558475994	0.607940673828125	2.1331787109375E-08
60.4601118473529	0.60516357421875	1.30615234375E-08
60.5577678471063	0.601348876953125	1.2481689453125E-08
60.6554238468598	0.599151611328125	5.767822265625E-09
60.7530798466132	0.59881591796875	1.57470703125E-08
60.8507358463667	0.59613037109375	1.2908935546875E-08
60.9483918461201	0.59466552734375	1.1260986328125E-08
61.0460478458735	0.59130859375	6.072998046875E-09
61.143703845627	0.588134765625	8.23974609375E-10
61.2413598453804	0.585205078125	2.38037109375E-09
61.3390158451339	0.582061767578125	-4.08935546875E-09
61.4366718448873	0.582489013671875	-1.220703125E-10
61.5343278446408	0.578094482421875	-6.7138671875E-09
61.6319838443942	0.576446533203125	2.9296875E-09
61.7296398441476	0.573944091796875	-5.4931640625E-09
61.8272958439011	0.57098388671875	-6.7138671875E-09
61.9249518436545	0.568359375	-9.063720703125E-09
62.022607843408	0.565032958984375	-8.087158203125E-09
62.1202638431614	0.563323974609375	-1.3397216796875E-08
62.2179198429149	0.561370849609375	-1.226806640625E-08
62.3155758426683	0.559844970703125	-1.5167236328125E-08
62.4132318424217	0.556915283203125	-4.913330078125E-09
62.5108878421752	0.551239013671875	-2.117919921875E-08
62.6085438419286	0.551422119140625	-1.30615234375E-08
62.7061998416821	0.548248291015625	-2.7862548828125E-08
62.8038558414355	0.5465087890625	-1.6998291015625E-08
62.9015118411889	0.544952392578125	-1.8280029296875E-08
62.9991678409424	0.542510986328125	-1.373291015625E-08
63.0968238406958	0.541229248046875	-1.8829345703125E-08
63.1944798404493	0.53692626953125	-2.0050048828125E-08
63.2921358402027	0.53497314453125	-2.056884765625E-08
63.3897918399562	0.531829833984375	-2.484130859375E-08
63.4874478397096	0.528472900390625	-3.009033203125E-08
63.585103839463	0.52978515625	-1.727294921875E-08
63.6827598392165	0.524749755859375	-2.28271484375E-08
63.7804158389699	0.524200439453125	-2.1728515625E-08
63.8780718387234	0.52166748046875	-2.3773193359375E-08
63.9757278384768	0.518280029296875	-2.606201171875E-08
64.0733838382303	0.515045166015625	-2.9815673828125E-08
64.1710398379837	0.511016845703125	-3.5064697265625E-08
64.2686958377371	0.5106201171875	-2.825927734375E-08
64.3663518374906	0.50823974609375	-3.3599853515625E-08
64.464007837244	0.50653076171875	-2.349853515625E-08
64.5616638369975	0.5030517578125	-3.0120849609375E-08
64.6593198367509	0.500396728515625	-3.619384765625E-08
64.7569758365044	0.49755859375	-3.4698486328125E-08
64.8546318362578	0.49407958984375	-4.06494140625E-08
64.9522878360112	0.493194580078125	-3.6895751953125E-08
65.0499438357647	0.49102783203125	-3.4912109375E-08
65.1475998355181	0.489105224609375	-3.8360595703125E-08
65.2452558352716	0.486236572265625	-3.4393310546875E-08
65.342911835025	0.480712890625	-4.94384765625E-08
65.4405678347784	0.4815673828125	-3.6285400390625E-08
65.5382238345319	0.477325439453125	-4.473876953125E-08
65.6358798342853	0.475189208984375	-3.851318359375E-08
65.7335358340388	0.47442626953125	-3.67431640625E-08
65.8311918337922	0.47100830078125	-3.4881591796875E-08
65.9288478335457	0.470703125	-3.72314453125E-08
66.0265038332991	0.46649169921875	-4.1656494140625E-08
66.1241598330525	0.46417236328125	-4.8095703125E-08
66.221815832806	0.460693359375	-4.6173095703125E-08
66.3194718325594	0.457550048828125	-5.401611328125E-08
66.4171278323129	0.459136962890625	-3.5308837890625E-08
66.5147838320663	0.4547119140625	-4.3121337890625E-08
66.6124398318198	0.45294189453125	-4.1656494140625E-08
66.7100958315732	0.451202392578125	-4.638671875E-08
66.8077518313266	0.4473876953125	-4.1778564453125E-08
66.9054078310801	0.443817138671875	-5.0048828125E-08
67.0030638308335	0.440338134765625	-5.2032470703125E-08
67.100719830587	0.4404296875	-4.296875E-08
67.1983758303404	0.43670654296875	-4.9285888671875E-08
67.2960318300939	0.435272216796875	-4.94384765625E-08
67.3936878298473	0.4326171875	-4.74853515625E-08
67.4913438296007	0.42852783203125	-5.87158203125E-08
67.5889998293542	0.427520751953125	-5.7220458984375E-08
67.6866558291076	0.422454833984375	-5.87158203125E-08
67.7843118288611	0.421722412109375	-6.060791015625E-08
67.8819678286145	0.419281005859375	-5.26123046875E-08
67.9796238283679	0.417755126953125	-5.5419921875E-08
68.0772798281214	0.41650390625	-4.0313720703125E-08
68.1749358278748	0.41094970703125	-5.5084228515625E-08
68.2725918276283	0.409912109375	-5.224609375E-08
68.3702478273817	0.4056396484375	-5.816650390625E-08
68.4679038271352	0.40570068359375	-5.60302734375E-08
68.5655598268886	0.402862548828125	-5.126953125E-08
68.663215826642	0.40069580078125	-5.95703125E-08
68.7608718263955	0.399322509765625	-5.5755615234375E-08
68.8585278261489	0.395477294921875	-5.79833984375E-08
68.9561838259024	0.393646240234375	-5.5328369140625E-08
69.0538398256558	0.39068603515625	-5.8837890625E-08
69.1514958254093	0.38641357421875	-6.2652587890625E-08
69.2491518251627	0.3885498046875	-5.145263671875E-08
69.3468078249161	0.383544921875	-5.7464599609375E-08
69.4444638246696	0.3817138671875	-5.511474609375E-08
69.542119824423	0.380706787109375	-5.3009033203125E-08
69.6397758241765	0.37579345703125	-6.1187744140625E-08
69.7374318239299	0.372955322265625	-6.524658203125E-08
69.8350878236834	0.370452880859375	-6.768798828125E-08
69.9327438234368	0.3692626953125	-6.4453125E-08
70.0303998231902	0.366424560546875	-6.72607421875E-08
70.1280558229437	0.364532470703125	-6.45751953125E-08
70.2257118226971	0.361297607421875	-6.707763671875E-08
70.3233678224506	0.358917236328125	-6.57958984375E-08
70.421023822204	0.356719970703125	-6.4697265625E-08
70.5186798219574	0.35308837890625	-7.2021484375E-08
70.6163358217109	0.351715087890625	-7.0831298828125E-08
70.7139918214643	0.349273681640625	-6.8115234375E-08
70.8116478212178	0.347625732421875	-6.402587890625E-08
70.9093038209712	0.345306396484375	-6.4361572265625E-08
71.0069598207247	0.33905029296875	-8.001708984375E-08
71.1046158204781	0.339080810546875	-7.1136474609375E-08
71.2022718202315	0.33526611328125	-7.3577880859375E-08
71.299927819985	0.333099365234375	-6.8450927734375E-08
71.3975838197384	0.33294677734375	-7.4554443359375E-08
71.4952398194919	0.3304443359375	-7.1197509765625E-08
71.5928958192453	0.329620361328125	-6.87255859375E-08
71.6905518189988	0.32452392578125	-7.122802734375E-08
71.7882078187522	0.323089599609375	-6.939697265625E-08
71.8858638185056	0.319976806640625	-7.48291015625E-08
71.9835198182591	0.3160400390625	-8.2489013671875E-08
72.0811758180125	0.31671142578125	-6.4117431640625E-08
72.178831817766	0.31329345703125	-7.26318359375E-08
72.2764878175194	0.31280517578125	-7.3486328125E-08
72.3741438172729	0.3092041015625	-6.93359375E-08
72.4717998170263	0.305816650390625	-7.098388671875E-08
72.5694558167797	0.302581787109375	-8.1756591796875E-08
72.6671118165332	0.299713134765625	-8.2916259765625E-08
72.7647678162866	0.300323486328125	-7.6080322265625E-08
72.8624238160401	0.295135498046875	-8.282470703125E-08
72.9600798157935	0.294097900390625	-7.4005126953125E-08
73.0577358155469	0.29180908203125	-7.6416015625E-08
73.1553918153004	0.287841796875	-7.7178955078125E-08
73.2530478150538	0.285430908203125	-8.4259033203125E-08
73.3507038148073	0.28228759765625	-8.1146240234375E-08
73.4483598145607	0.281158447265625	-7.9010009765625E-08
73.5460158143142	0.277984619140625	-8.50830078125E-08
73.6436718140676	0.277130126953125	-8.160400390625E-08
73.741327813821	0.275054931640625	-8.1573486328125E-08
73.8389838135745	0.26947021484375	-9.173583984375E-08
73.9366398133279	0.268707275390625	-8.544921875E-08
74.0342958130814	0.264190673828125	-9.65576171875E-08
74.1319518128348	0.263153076171875	-9.0057373046875E-08
74.2296078125883	0.26165771484375	-8.60595703125E-08
74.3272638123417	0.259857177734375	-8.709716796875E-08
74.4249198120951	0.2574462890625	-8.074951171875E-08
74.5225758118486	0.25103759765625	-9.6099853515625E-08
74.620231811602	0.252349853515625	-8.69140625E-08
74.7178878113555	0.247650146484375	-9.7808837890625E-08
74.8155438111089	0.244781494140625	-9.6405029296875E-08
74.9131998108624	0.24420166015625	-9.0545654296875E-08
75.0108558106158	0.24224853515625	-9.1766357421875E-08
75.1085118103692	0.241790771484375	-8.270263671875E-08
75.2061678101227	0.236663818359375	-8.8165283203125E-08
75.3038238098761	0.234771728515625	-8.6822509765625E-08
75.4014798096296	0.230926513671875	-1.00616455078125E-07
75.499135809383	0.229583740234375	-9.8968505859375E-08
75.5967918091364	0.2271728515625	-9.4024658203125E-08
75.6944478088899	0.225372314453125	-8.9813232421875E-08
75.7921038086433	0.22393798828125	-8.50830078125E-08
75.8897598083968	0.219818115234375	-9.6466064453125E-08
75.9874158081502	0.2174072265625	-8.97216796875E-08
76.0850718079037	0.21435546875	-9.7259521484375E-08
76.1827278076571	0.2110595703125	-1.01531982421875E-07
76.2803838074105	0.212432861328125	-8.355712890625E-08
76.378039807164	0.208831787109375	-9.8358154296875E-08
76.4756958069174	0.207611083984375	-9.6038818359375E-08
76.5733518066709	0.2044677734375	-9.7412109375E-08
76.6710078064243	0.20068359375	-9.6038818359375E-08
76.7686638061778	0.197601318359375	-9.8968505859375E-08
76.8663198059312	0.19427490234375	-1.09893798828125E-07
76.9639758056846	0.195068359375	-9.94873046875E-08
77.0616318054381	0.1903076171875	-1.01959228515625E-07
77.1592878051915	0.18951416015625	-9.8785400390625E-08
77.256943804945	0.186798095703125	-1.0736083984375E-07
77.3545998046984	0.183135986328125	-1.0662841796875E-07
77.4522558044519	0.1807861328125	-1.0986328125E-07
77.5499118042053	0.177947998046875	-1.08856201171875E-07
77.6475678039587	0.176055908203125	-1.0546875E-07
77.7452238037122	0.1734619140625	-1.0797119140625E-07
77.8428798034656	0.172332763671875	-1.05316162109375E-07
77.9405358032191	0.170654296875	-1.024169921875E-07
78.0381918029725	0.16510009765625	-1.13189697265625E-07
78.1358478027259	0.16412353515625	-1.05224609375E-07
78.2335038024794	0.15985107421875	-1.19598388671875E-07
78.3311598022328	0.158111572265625	-1.136474609375E-07
78.4288158019863	0.15606689453125	-1.10443115234375E-07
78.5264718017397	0.15545654296875	-1.041259765625E-07
78.6241278014932	0.15350341796875	-1.05682373046875E-07
78.7217838012466	0.14678955078125	-1.20849609375E-07
78.819439801	0.1466064453125	-1.14227294921875E-07
78.9170958007535	0.142791748046875	-1.15386962890625E-07
79.0147518005069	0.141815185546875	-1.109619140625E-07
79.1124078002604	0.1397705078125	-1.0528564453125E-07
79.2100638000138	0.13714599609375	-1.13189697265625E-07
79.3077197997673	0.13690185546875	-1.090087890625E-07
79.4053757995207	0.132415771484375	-1.12030029296875E-07
79.5030317992741	0.129608154296875	-1.12823486328125E-07
79.6006877990276	0.1265869140625	-1.1578369140625E-07
79.698343798781	0.125030517578125	-1.1773681640625E-07
79.7959997985345	0.12237548828125	-1.116943359375E-07
79.8936557982879	0.12042236328125	-1.11785888671875E-07
79.9913117980414	0.1199951171875	-1.051025390625E-07
80.0889677977948	0.11529541015625	-1.126708984375E-07
80.1866237975482	0.11260986328125	-1.14776611328125E-07
80.2842797973017	0.109832763671875	-1.21490478515625E-07
80.3819357970551	0.107330322265625	-1.23016357421875E-07
80.4795917968086	0.108062744140625	-1.094970703125E-07
80.577247796562	0.102691650390625	-1.1834716796875E-07
80.6749037963154	0.10211181640625	-1.2042236328125E-07
80.7725597960689	0.10028076171875	-1.1517333984375E-07
80.8702157958223	0.095794677734375	-1.23931884765625E-07
80.9678717955758	0.092926025390625	-1.22650146484375E-07
81.0655277953292	0.089996337890625	-1.2689208984375E-07
81.1631837950827	0.089996337890625	-1.16729736328125E-07
81.2608397948361	0.08544921875	-1.29241943359375E-07
81.3584957945895	0.0850830078125	-1.220703125E-07
81.456151794343	0.081634521484375	-1.241455078125E-07
81.5538077940964	0.078338623046875	-1.2249755859375E-07
81.6514637938499	0.07537841796875	-1.24298095703125E-07
81.7491197936033	0.07293701171875	-1.30645751953125E-07
81.8467757933568	0.07196044921875	-1.19384765625E-07
81.9444317931102	0.068359375	-1.2457275390625E-07
82.0420877928636	0.067291259765625	-1.26739501953125E-07
82.1397437926171	0.065887451171875	-1.21307373046875E-07
82.2373997923705	0.05841064453125	-1.3653564453125E-07
82.335055792124	0.05877685546875	-1.3189697265625E-07
82.4327117918774	0.054779052734375	-1.297607421875E-07
82.5303677916309	0.053192138671875	-1.35833740234375E-07
82.6280237913843	0.05120849609375	-1.27044677734375E-07
82.7256797911377	0.049713134765625	-1.275634765625E-07
82.8233357908912	0.04925537109375	-1.25152587890625E-07
82.9209917906446	0.0451416015625	-1.31072998046875E-07
83.0186477903981	0.041937255859375	-1.2860107421875E-07
83.1163037901515	0.0402374267578125	-1.3507080078125E-07
83.2139597899049	0.03729248046875	-1.34368896484375E-07
83.3116157896584	0.035101318359375	-1.329345703125E-07
83.4092717894118	0.0322723388671875	-1.243896484375E-07
83.5069277891653	0.0305572509765625	-1.31256103515625E-07
83.6045837889187	0.0281707763671875	-1.23992919921875E-07
83.7022397886722	0.0249847412109375	-1.31195068359375E-07
83.7998957884256	0.022265625	-1.4056396484375E-07
83.897551788179	0.0204620361328125	-1.45599365234375E-07
83.9952077879325	0.0177642822265625	-1.3189697265625E-07
84.0928637876859	0.0151214599609375	-1.38092041015625E-07
84.1905197874394	0.012591552734375	-1.3580322265625E-07
84.2881757871928	0.0102691650390625	-1.40411376953125E-07
84.3858317869463	0.00838317871093749	-1.45111083984375E-07
84.4834877866997	0.0054443359375	-1.42608642578125E-07
84.5811437864531	0.00354919433593751	-1.4654541015625E-07
84.6787997862066	0.000845336914062494	-1.407470703125E-07
84.77645578596	-0.0019378662109375	-1.40533447265625E-07
84.8741117857135	-0.00408020019531249	-1.4141845703125E-07
84.9717677854669	-0.0063629150390625	-1.4227294921875E-07
85.0694237852204	-0.00917968750000001	-1.49932861328125E-07
85.1670797849738	-0.012078857421875	-1.4508056640625E-07
85.2647357847272	-0.0140106201171875	-1.52618408203125E-07
85.3623917844807	-0.01654052734375	-1.51214599609375E-07
85.4600477842341	-0.018536376953125	-1.51641845703125E-07
85.5577037839876	-0.021258544921875	-1.4776611328125E-07
85.655359783741	-0.023272705078125	-1.46087646484375E-07
85.7530157834944	-0.0262725830078125	-1.5631103515625E-07
85.8506717832479	-0.0285491943359375	-1.524658203125E-07
85.9483277830013	-0.0314910888671875	-1.546630859375E-07
86.0459837827548	-0.03336181640625	-1.5802001953125E-07
86.1436397825082	-0.036248779296875	-1.5570068359375E-07
86.2412957822617	-0.0382354736328125	-1.57958984375E-07
86.3389517820151	-0.0406585693359375	-1.55975341796875E-07
86.4366077817685	-0.0433258056640625	-1.654052734375E-07
86.534263781522	-0.0456878662109375	-1.62353515625E-07
86.6319197812754	-0.049072265625	-1.67694091796875E-07
86.7295757810289	-0.05157470703125	-1.6876220703125E-07
86.8272317807823	-0.0523681640625	-1.6424560546875E-07
86.9248877805358	-0.054840087890625	-1.62750244140625E-07
87.0225437802892	-0.055633544921875	-1.66107177734375E-07
87.1201997800426	-0.05987548828125	-1.61865234375E-07
87.2178557797961	-0.062255859375	-1.70196533203125E-07
87.3155117795495	-0.06549072265625	-1.81671142578125E-07
87.413167779303	-0.068206787109375	-1.8133544921875E-07
87.5108237790564	-0.068115234375	-1.75201416015625E-07
87.6084797788099	-0.072265625	-1.873779296875E-07
87.7061357785633	-0.073822021484375	-1.783447265625E-07
87.8037917783167	-0.07647705078125	-1.8365478515625E-07
87.9014477780702	-0.08026123046875	-1.89361572265625E-07
87.9991037778236	-0.0821533203125	-1.92047119140625E-07
88.0967597775771	-0.086151123046875	-1.93634033203125E-07
88.1944157773305	-0.086944580078125	-1.97235107421875E-07
88.2920717770839	-0.0892333984375	-2.034912109375E-07
88.3897277768374	-0.090240478515625	-1.9390869140625E-07
88.4873837765908	-0.093231201171875	-2.03704833984375E-07
88.5850397763443	-0.099090576171875	-2.200927734375E-07
88.6826957760977	-0.098876953125	-2.0751953125E-07
88.7803517758512	-0.104461669921875	-2.265625E-07
88.8780077756046	-0.105621337890625	-2.34039306640625E-07
88.975663775358	-0.10662841796875	-2.2705078125E-07
89.0733197751115	-0.107757568359375	-2.2943115234375E-07
89.1709757748649	-0.10968017578125	-2.308349609375E-07
89.2686317746184	-0.114898681640625	-2.36663818359375E-07
89.3662877743718	-0.11566162109375	-2.4658203125E-07
89.4639437741253	-0.119476318359375	-2.5433349609375E-07
89.5615997738787	-0.12127685546875	-2.56103515625E-07
89.6592557736321	-0.123321533203125	-2.657470703125E-07
89.7569117733856	-0.124542236328125	-2.69500732421875E-07
89.854567773139	-0.126251220703125	-2.69073486328125E-07
89.9522237728925	-0.130218505859375	-2.74688720703125E-07
90.0498797726459	-0.1328125	-2.8863525390625E-07
90.1475357723994	-0.13592529296875	-3.03985595703125E-07
90.2451917721528	-0.139404296875	-3.9520263671875E-07
90.3428477719062	-0.1405029296875	-3.96728515625E-07
90.4405037716597	-0.143218994140625	-4.1046142578125E-07
90.5381597714131	-0.145538330078125	-4.2388916015625E-07
90.6358157711666	-0.1480712890625	-4.486083984375E-07
90.73347177092	-0.15142822265625	-4.5196533203125E-07
90.8311277706734	-0.153045654296875	-4.736328125E-07
90.9287837704269	-0.15594482421875	-4.8919677734375E-07
91.0264397701803	-0.157806396484375	-5.120849609375E-07
91.1240957699338	-0.1610107421875	-5.3009033203125E-07
91.2217517696872	-0.163177490234375	-5.4443359375E-07
91.3194077694407	-0.164886474609375	-5.7373046875E-07
91.4170637691941	-0.167816162109375	-6.2042236328125E-07
91.5147197689475	-0.170318603515625	-6.219482421875E-07
91.612375768701	-0.17236328125	-6.53076171875E-07
91.7100317684544	-0.174957275390625	-6.87255859375E-07
91.8076877682079	-0.176971435546875	-7.06787109375E-07
91.9053437679613	-0.18023681640625	-7.373046875E-07
92.0029997677148	-0.181610107421875	-7.6019287109375E-07
92.1006557674682	-0.184417724609375	-8.050537109375E-07
92.1983117672216	-0.187713623046875	-8.441162109375E-07
92.2959677669751	-0.190155029296875	-8.8897705078125E-07
92.3936237667285	-0.1917724609375	-9.33837890625E-07
92.491279766482	-0.194793701171875	-9.75341796875E-07
92.5889357662354	-0.1973876953125	-1.01837158203125E-06
92.6865917659889	-0.198516845703125	-1.06048583984375E-06
92.7842477657423	-0.2020263671875	-1.11846923828125E-06
92.8819037654957	-0.2044677734375	-1.17645263671875E-06
92.9795597652492	-0.207122802734375	-1.24267578125E-06
93.0772157650026	-0.208984375	-1.302490234375E-06
93.1748717647561	-0.211273193359375	-1.36199951171875E-06
93.2725277645095	-0.214080810546875	-1.4422607421875E-06
93.3701837642629	-0.2166748046875	-1.51123046875E-06
93.4678397640164	-0.21905517578125	-1.59149169921875E-06
93.5654957637698	-0.2218017578125	-1.67633056640625E-06
93.6631517635233	-0.2239990234375	-1.76910400390625E-06
93.7608077632767	-0.22662353515625	-1.85943603515625E-06
93.8584637630302	-0.228851318359375	-1.95465087890625E-06
93.9561197627836	-0.231201171875	-2.061767578125E-06
94.053775762537	-0.23297119140625	-2.164306640625E-06
94.1514317622905	-0.23590087890625	-2.28302001953125E-06
94.2490877620439	-0.23919677734375	-2.418212890625E-06
94.3467437617974	-0.240478515625	-2.53143310546875E-06
94.4443997615508	-0.243255615234375	-2.6751708984375E-06
94.5420557613043	-0.246124267578125	-2.80487060546875E-06
94.6397117610577	-0.247100830078125	-2.95257568359375E-06
94.7373677608111	-0.249755859375	-3.11126708984375E-06
94.8350237605646	-0.252685546875	-3.2989501953125E-06
94.932679760318	-0.256072998046875	-3.4698486328125E-06
95.0303357600715	-0.25811767578125	-3.656005859375E-06
95.1279917598249	-0.260009765625	-3.84521484375E-06
95.2256477595784	-0.263519287109375	-4.052734375E-06
95.3233037593318	-0.265167236328125	-4.2388916015625E-06
95.4209597590852	-0.2674560546875	-4.4891357421875E-06
95.5186157588387	-0.27008056640625	-4.72412109375E-06
95.6162717585921	-0.272613525390625	-4.949951171875E-06
95.7139277583456	-0.275482177734375	-5.2154541015625E-06
95.811583758099	-0.27734375	-5.4901123046875E-06
95.9092397578524	-0.280303955078125	-5.780029296875E-06
96.0068957576059	-0.28216552734375	-6.0791015625E-06
96.1045517573593	-0.285186767578125	-6.3995361328125E-06
96.2022077571128	-0.287261962890625	-6.7291259765625E-06
96.2998637568662	-0.289520263671875	-7.086181640625E-06
96.3975197566197	-0.291717529296875	-7.476806640625E-06
96.4951757563731	-0.294525146484375	-7.861328125E-06
96.5928317561265	-0.29681396484375	-8.2794189453125E-06
96.69048775588	-0.2991943359375	-8.70361328125E-06
96.7881437556334	-0.3013916015625	-9.1552734375E-06
96.8857997553869	-0.304718017578125	-9.6435546875E-06
96.9834557551403	-0.306610107421875	-1.014404296875E-05
97.0811117548938	-0.3087158203125	-1.07025146484375E-05
97.1787677546472	-0.312042236328125	-1.12579345703125E-05
97.2764237544006	-0.31439208984375	-1.18743896484375E-05
97.3740797541541	-0.316375732421875	-1.24969482421875E-05
97.4717357539075	-0.319549560546875	-1.31378173828125E-05
97.569391753661	-0.32086181640625	-1.3836669921875E-05
97.6670477534144	-0.32440185546875	-1.45660400390625E-05
97.7647037531679	-0.326416015625	-1.53564453125E-05
97.8623597529213	-0.32916259765625	-1.61651611328125E-05
97.9600157526747	-0.3314208984375	-1.7034912109375E-05
98.0576717524282	-0.328216552734375	-1.43707275390625E-05
98.1553277521816	-0.326263427734375	-1.248779296875E-05
98.2529837519351	-0.32427978515625	-1.1004638671875E-05
98.3506397516885	-0.3216552734375	-9.722900390625E-06
98.4482957514419	-0.31884765625	-8.660888671875E-06
98.5459517511954	-0.316925048828125	-7.6995849609375E-06
98.6436077509488	-0.314727783203125	-6.854248046875E-06
98.7412637507023	-0.31219482421875	-6.0821533203125E-06
98.8389197504557	-0.30902099609375	-5.38330078125E-06
98.9365757502092	-0.307464599609375	-4.791259765625E-06
99.0342317499626	-0.304901123046875	-4.2236328125E-06
99.131887749716	-0.3018798828125	-3.7200927734375E-06
99.2295437494695	-0.29986572265625	-3.2623291015625E-06
99.3271997492229	-0.297698974609375	-2.8411865234375E-06
99.4248557489764	-0.294403076171875	-2.4627685546875E-06
99.5225117487298	-0.29217529296875	-2.1026611328125E-06
99.6201677484833	-0.28997802734375	-1.763916015625E-06
99.7178237482367	-0.287841796875	-1.47705078125E-06
99.8154797479901	-0.28485107421875	-1.2054443359375E-06
99.9131357477436	-0.28277587890625	-9.8876953125E-07
100.010791747497	-0.2806396484375	-7.62939453125E-07
100.10844774725	-0.2783203125	-5.7373046875E-07
100.206103747004	-0.27545166015625	-3.84521484375E-07
100.303759746757	-0.273345947265625	-2.25830078125E-07
100.401415746511	-0.270843505859375	-6.77490234375E-08
100.499071746264	-0.268341064453125	7.38525390625E-08
100.596727746018	-0.265472412109375	1.8402099609375E-07
100.694383745771	-0.262786865234375	2.9571533203125E-07
100.792039745525	-0.2613525390625	3.8848876953125E-07
100.889695745278	-0.25811767578125	4.864501953125E-07
100.987351745031	-0.25628662109375	5.6182861328125E-07
101.085007744785	-0.25390625	6.396484375E-07
101.182663744538	-0.251434326171875	7.1014404296875E-07
101.280319744292	-0.248992919921875	7.5927734375E-07
101.377975744045	-0.245697021484375	8.0596923828125E-07
101.475631743799	-0.243988037109375	8.48388671875E-07
101.573287743552	-0.240875244140625	8.8897705078125E-07
101.670943743306	-0.238555908203125	9.4635009765625E-07
101.768599743059	-0.235992431640625	9.5672607421875E-07
101.866255742812	-0.234161376953125	9.8114013671875E-07
101.963911742566	-0.231842041015625	1.00677490234375E-06
102.061567742319	-0.2294921875	1.0223388671875E-06
102.159223742073	-0.2271728515625	1.03240966796875E-06
102.256879741826	-0.22491455078125	1.03515625E-06
102.35453574158	-0.222259521484375	1.0498046875E-06
102.452191741333	-0.219757080078125	1.0601806640625E-06
102.549847741087	-0.216827392578125	1.0693359375E-06
102.64750374084	-0.21405029296875	1.06781005859375E-06
102.745159740593	-0.211456298828125	1.06781005859375E-06
102.842815740347	-0.209442138671875	1.0662841796875E-06
102.9404717401	-0.20709228515625	1.0528564453125E-06
103.038127739854	-0.204254150390625	1.0589599609375E-06
103.135783739607	-0.201934814453125	1.05194091796875E-06
103.233439739361	-0.19940185546875	1.04827880859375E-06
103.331095739114	-0.197906494140625	1.03912353515625E-06
103.428751738868	-0.19561767578125	1.00433349609375E-06
103.526407738621	-0.1920166015625	1.0162353515625E-06
103.624063738374	-0.18988037109375	1.00128173828125E-06
103.721719738128	-0.187530517578125	9.92431640625E-07
103.819375737881	-0.18499755859375	9.893798828125E-07
103.917031737635	-0.18218994140625	9.7900390625E-07
104.014687737388	-0.179595947265625	9.765625E-07
104.112343737142	-0.177825927734375	9.5916748046875E-07
104.209999736895	-0.1756591796875	9.4268798828125E-07
104.307655736648	-0.172607421875	9.2681884765625E-07
104.405311736402	-0.170013427734375	9.2193603515625E-07
104.502967736155	-0.167938232421875	9.06982421875E-07
104.600623735909	-0.165985107421875	8.9630126953125E-07
104.698279735662	-0.162811279296875	8.9141845703125E-07
104.795935735416	-0.160430908203125	8.75244140625E-07
104.893591735169	-0.15771484375	8.6334228515625E-07
104.991247734923	-0.155487060546875	8.4564208984375E-07
105.088903734676	-0.1533203125	8.331298828125E-07
105.186559734429	-0.149871826171875	8.453369140625E-07
105.284215734183	-0.148773193359375	8.1207275390625E-07
105.381871733936	-0.146148681640625	8.062744140625E-07
105.47952773369	-0.14373779296875	7.94677734375E-07
105.577183733443	-0.140777587890625	7.7728271484375E-07
105.674839733197	-0.139068603515625	7.6507568359375E-07
105.77249573295	-0.136932373046875	7.513427734375E-07
105.870151732704	-0.13433837890625	7.48291015625E-07
105.967807732457	-0.131866455078125	7.3394775390625E-07
106.06546373221	-0.12933349609375	7.31201171875E-07
106.163119731964	-0.12689208984375	7.1929931640625E-07
106.260775731717	-0.125	6.77490234375E-07
106.358431731471	-0.121246337890625	6.92138671875E-07
106.456087731224	-0.118927001953125	6.7840576171875E-07
106.553743730978	-0.11651611328125	6.6436767578125E-07
106.651399730731	-0.113861083984375	6.60400390625E-07
106.749055730485	-0.11163330078125	6.5673828125E-07
106.846711730238	-0.109405517578125	6.50634765625E-07
106.944367729991	-0.107208251953125	6.396484375E-07
107.042023729745	-0.105010986328125	6.292724609375E-07
107.139679729498	-0.102630615234375	6.182861328125E-07
107.237335729252	-0.09942626953125	5.99365234375E-07
107.334991729005	-0.09771728515625	6.28662109375E-07
107.432647728759	-0.09490966796875	5.9783935546875E-07
107.530303728512	-0.09197998046875	5.92041015625E-07
107.627959728266	-0.089263916015625	5.859375E-07
107.725615728019	-0.087127685546875	5.70068359375E-07
107.823271727772	-0.085174560546875	5.6304931640625E-07
107.920927727526	-0.083099365234375	5.517578125E-07
108.018583727279	-0.08056640625	5.5328369140625E-07
108.116239727033	-0.07757568359375	5.4290771484375E-07
108.213895726786	-0.075042724609375	5.4229736328125E-07
108.31155172654	-0.07330322265625	5.401611328125E-07
108.409207726293	-0.070281982421875	5.2093505859375E-07
108.506863726047	-0.068084716796875	5.2093505859375E-07
108.6045197258	-0.065643310546875	5.023193359375E-07
108.702175725553	-0.062896728515625	5.072021484375E-07
108.799831725307	-0.060821533203125	5.035400390625E-07
108.89748772506	-0.058685302734375	5.0079345703125E-07
108.995143724814	-0.0557861328125	4.9652099609375E-07
109.092799724567	-0.053924560546875	4.7515869140625E-07
109.190455724321	-0.05072021484375	4.7943115234375E-07
109.288111724074	-0.0482940673828125	4.72412109375E-07
109.385767723827	-0.0458160400390625	4.7821044921875E-07
109.483423723581	-0.0432891845703125	4.6539306640625E-07
109.581079723334	-0.041290283203125	4.632568359375E-07
109.678735723088	-0.03873291015625	4.6295166015625E-07
109.776391722841	-0.0363677978515625	4.5501708984375E-07
109.874047722595	-0.03348388671875	4.4891357421875E-07
109.971703722348	-0.0305694580078125	4.40673828125E-07
110.069359722102	-0.028955078125	4.4097900390625E-07
110.167015721855	-0.025714111328125	4.6142578125E-07
110.264671721608	-0.02431640625	4.3365478515625E-07
110.362327721362	-0.0217437744140625	4.30908203125E-07
110.459983721115	-0.0192779541015625	4.3182373046875E-07
110.557639720869	-0.0168792724609375	4.1778564453125E-07
110.655295720622	-0.0139984130859375	4.2236328125E-07
110.752951720376	-0.0112030029296875	4.1534423828125E-07
110.850607720129	-0.00910034179687499	4.1259765625E-07
110.948263719883	-0.0063140869140625	4.071044921875E-07
111.045919719636	-0.00419006347656251	4.0985107421875E-07
111.143575719389	-0.002001953125	4.06494140625E-07
111.241231719143	0.0008392333984375	3.8360595703125E-07
111.338887718896	0.003497314453125	4.010009765625E-07
111.43654371865	0.005401611328125	3.863525390625E-07
111.534199718403	0.00751647949218751	3.936767578125E-07
111.631855718157	0.0101593017578125	3.8726806640625E-07
111.72951171791	0.0132476806640625	3.8848876953125E-07
111.827167717664	0.0155792236328125	3.9520263671875E-07
111.924823717417	0.0181121826171875	3.8360595703125E-07
112.02247971717	0.0197906494140625	3.790283203125E-07
112.120135716924	0.02235107421875	3.74755859375E-07
112.217791716677	0.02506103515625	3.7017822265625E-07
112.315447716431	0.0274505615234375	3.79638671875E-07
112.413103716184	0.03026123046875	3.67431640625E-07
112.510759715938	0.0325836181640625	3.741455078125E-07
112.608415715691	0.0344268798828125	3.6468505859375E-07
112.706071715445	0.03734130859375	3.662109375E-07
112.803727715198	0.0401031494140625	3.570556640625E-07
112.901383714951	0.042706298828125	3.52783203125E-07
112.999039714705	0.0450927734375	3.546142578125E-07
113.096695714458	0.0475128173828125	3.5308837890625E-07
113.194351714212	0.0491851806640625	3.5430908203125E-07
113.292007713965	0.05169677734375	3.4637451171875E-07
113.389663713719	0.05340576171875	3.338623046875E-07
113.487319713472	0.056427001953125	3.4637451171875E-07
113.584975713226	0.058685302734375	3.3447265625E-07
113.682631712979	0.060760498046875	3.3721923828125E-07
113.780287712732	0.06414794921875	3.4271240234375E-07
113.877943712486	0.066650390625	3.41796875E-07
113.975599712239	0.06854248046875	3.497314453125E-07
114.073255711993	0.071533203125	3.3294677734375E-07
114.170911711746	0.0738525390625	3.326416015625E-07
114.2685677115	0.07550048828125	3.2806396484375E-07
114.366223711253	0.0784912109375	3.192138671875E-07
114.463879711006	0.08038330078125	3.4576416015625E-07
114.56153571076	0.08355712890625	3.2806396484375E-07
114.659191710513	0.086273193359375	3.3294677734375E-07
114.756847710267	0.088409423828125	3.2989501953125E-07
114.85450371002	0.090362548828125	3.25927734375E-07
114.952159709774	0.09326171875	3.1524658203125E-07
115.049815709527	0.0960693359375	3.106689453125E-07
115.147471709281	0.098358154296875	3.1646728515625E-07
115.245127709034	0.100921630859375	3.1707763671875E-07
115.342783708787	0.102874755859375	3.228759765625E-07
115.440439708541	0.1046142578125	3.1158447265625E-07
115.538095708294	0.10736083984375	3.1036376953125E-07
115.635751708048	0.110565185546875	3.0914306640625E-07
115.733407707801	0.113037109375	3.0059814453125E-07
115.831063707555	0.11553955078125	3.06396484375E-07
115.928719707308	0.117218017578125	3.021240234375E-07
116.026375707062	0.119659423828125	3.070068359375E-07
116.124031706815	0.12200927734375	3.06396484375E-07
116.221687706568	0.12432861328125	2.9144287109375E-07
116.319343706322	0.1275634765625	2.99072265625E-07
116.416999706075	0.129608154296875	2.9327392578125E-07
116.514655705829	0.131591796875	2.94189453125E-07
116.612311705582	0.13494873046875	3.01513671875E-07
116.709967705336	0.137451171875	2.984619140625E-07
116.807623705089	0.13946533203125	2.9815673828125E-07
116.905279704843	0.142364501953125	2.947998046875E-07
117.002935704596	0.143768310546875	2.9205322265625E-07
117.100591704349	0.14630126953125	2.8900146484375E-07
117.198247704103	0.149383544921875	2.8533935546875E-07
117.295903703856	0.152130126953125	3.167724609375E-07
117.39355970361	0.15411376953125	2.9052734375E-07
117.491215703363	0.156585693359375	2.8717041015625E-07
117.588871703117	0.15869140625	2.923583984375E-07
117.68652770287	0.161346435546875	2.8228759765625E-07
117.784183702624	0.1641845703125	2.79541015625E-07
117.881839702377	0.16656494140625	2.752685546875E-07
117.97949570213	0.16888427734375	2.7923583984375E-07
